# Filename: DEER_Anthr_50K_af1-66.DSC.txt
# Bckg_type: polyexp1_0.9_0.5
# FirstColumn: Time[us]
# SecondColumn: BckgSubtractedData
2.68125e-03	1.087935943281900e-01
1.06917e-02	1.018123482427857e-01
1.87021e-02	9.064401918843748e-02
2.67125e-02	7.157651941445589e-02
3.47229e-02	5.129669642052827e-02
4.27333e-02	2.707839169658576e-02
5.07437e-02	1.603668410801946e-03
5.87542e-02	-1.665237941904671e-02
6.67646e-02	-3.294939107739822e-02
7.47750e-02	-4.077223450346493e-02
8.27854e-02	-4.669869718800745e-02
9.07958e-02	-4.963299556554202e-02
9.88062e-02	-4.568450630343881e-02
1.06817e-01	-3.968612298612186e-02
1.14827e-01	-2.826788089218376e-02
1.22837e-01	-1.798507593999753e-02
1.30848e-01	-9.176461030184355e-03
1.38858e-01	1.388770038176943e-03
1.46869e-01	7.360271726672982e-03
1.54879e-01	1.433189935821018e-02
1.62890e-01	1.471081501088559e-02
1.70900e-01	1.225426188895970e-02
1.78910e-01	9.635406053192880e-03
1.86921e-01	4.074897422570799e-03
1.94931e-01	1.317192464610712e-03
2.02942e-01	-7.257750192454941e-03
2.10952e-01	-1.592358037193200e-02
2.18962e-01	-2.327542951960417e-02
2.26973e-01	-3.077501239211562e-02
2.34983e-01	-3.199383364065217e-02
2.42994e-01	-3.288826642933360e-02
2.51004e-01	-2.872724433380724e-02
2.59015e-01	-2.240216736763282e-02
2.67025e-01	-1.454336623258440e-02
2.75035e-01	-3.323187606281447e-03
2.83046e-01	3.583865990112265e-03
2.91056e-01	8.791140275388633e-03
2.99067e-01	1.273519085894139e-02
3.07077e-01	1.321264410081028e-02
3.15087e-01	1.300293192658622e-02
3.23098e-01	7.994354511358569e-03
3.31108e-01	1.899977188675914e-03
3.39119e-01	-4.455606248956906e-03
3.47129e-01	-1.118897874669978e-02
3.55140e-01	-1.347918331122303e-02
3.63150e-01	-1.839567630122222e-02
3.71160e-01	-2.057509165862840e-02
3.79171e-01	-2.143795909159352e-02
3.87181e-01	-2.153960379594057e-02
3.95192e-01	-1.667249201437182e-02
4.03202e-01	-1.456984240301828e-02
4.11212e-01	-1.100691332035045e-02
4.19223e-01	-8.127996813944586e-03
4.27233e-01	-4.220928112426533e-03
4.35244e-01	2.260521040948800e-03
4.43254e-01	3.782276597175977e-03
4.51265e-01	4.894080144320350e-03
4.59275e-01	3.746841718423573e-03
4.67285e-01	2.673728750979570e-03
4.75296e-01	2.770436610552963e-03
4.83306e-01	-1.072456917892081e-03
4.91317e-01	-4.630441987552577e-03
4.99327e-01	-9.167173380364269e-03
5.07337e-01	-1.202653955503907e-02
5.15348e-01	-1.230689146477872e-02
5.23358e-01	-1.357188825704074e-02
5.31369e-01	-1.409398778672168e-02
5.39379e-01	-1.379804360516592e-02
5.47390e-01	-1.171828799387747e-02
5.55400e-01	-7.292024856864152e-03
5.63410e-01	-5.120458271781330e-03
5.71421e-01	-2.487287412947903e-03
5.79431e-01	-3.319308681713233e-04
5.87442e-01	7.887828170151666e-04
5.95452e-01	4.401393567643271e-03
6.03462e-01	4.161926649322272e-03
6.11473e-01	2.327597964070620e-03
6.19483e-01	5.756215195267903e-04
6.27494e-01	-1.665992481415337e-03
6.35504e-01	-2.038727087718680e-03
6.43515e-01	-3.963413664702473e-03
6.51525e-01	-7.652107956980857e-03
6.59535e-01	-8.892337212619202e-03
6.67546e-01	-1.026495420347837e-02
6.75556e-01	-8.373188440243918e-03
6.83567e-01	-8.155231178381349e-03
6.91577e-01	-7.769846485964276e-03
6.99587e-01	-6.479134802777413e-03
7.07598e-01	-5.387457146738591e-03
7.15608e-01	-1.505258570964008e-03
7.23619e-01	-6.048952817927385e-04
7.31629e-01	4.600198490267693e-04
7.39640e-01	8.421090198020516e-04
7.47650e-01	1.499926719763230e-03
7.55660e-01	2.967011665604818e-03
7.63671e-01	2.842091433890314e-03
7.71681e-01	8.656026281512522e-04
7.79692e-01	-1.308524080944346e-03
7.87702e-01	-2.572825946152424e-03
7.95712e-01	-2.057741763861140e-03
8.03723e-01	-4.640348268243857e-03
8.11733e-01	-5.677756071555608e-03
8.19744e-01	-6.231030677193336e-03
8.27754e-01	-6.777758110657279e-03
8.35765e-01	-4.585284260234810e-03
8.43775e-01	-3.970189954161880e-03
8.51785e-01	-3.787997744153134e-03
8.59796e-01	-2.818906575485645e-03
8.67806e-01	-1.529647307081459e-03
8.75817e-01	1.364242119326845e-03
8.83827e-01	1.492216027891743e-03
8.91837e-01	1.631472335410464e-03
8.99848e-01	9.863775409376084e-04
9.07858e-01	6.446599261834875e-05
9.15869e-01	1.827906624382487e-03
9.23879e-01	4.717935193337962e-04
9.31890e-01	-9.516065524539314e-04
9.39900e-01	-2.132962002944247e-03
9.47910e-01	-3.220991125468219e-03
9.55921e-01	-1.005705760256893e-03
9.63931e-01	-2.401170149104954e-03
9.71942e-01	-2.853279192544296e-03
9.79952e-01	-3.643466328287779e-03
9.87962e-01	-4.160259061775516e-03
9.95973e-01	-1.596747330187749e-03
1.00398e+00	-8.082974980980339e-04
1.01199e+00	-1.491278531186772e-03
1.02000e+00	-9.049332805315270e-04
1.02801e+00	-1.728088851132799e-04
1.03603e+00	2.311600068995914e-03
1.04404e+00	1.885247723677350e-03
1.05205e+00	2.160633907122697e-03
1.06006e+00	5.817657706086855e-04
1.06807e+00	5.810986078261180e-04
1.07608e+00	1.825376608398442e-03
1.08409e+00	5.024932370265524e-04
1.09210e+00	-4.872039718489016e-04
1.10011e+00	-2.152299923743798e-03
1.10812e+00	-2.679604457481178e-03
1.11613e+00	-8.760434514729662e-04
1.12414e+00	-1.521796412276077e-03
1.13215e+00	-1.809829892632077e-03
1.14016e+00	-2.110891839816408e-03
1.14817e+00	-2.479369962299703e-03
1.15618e+00	1.182048931329017e-03
1.16419e+00	8.142532672101977e-04
1.17220e+00	3.143059878595936e-04
1.18021e+00	4.412922688454085e-04
1.18822e+00	5.837738326366970e-04
1.19623e+00	2.229367280689426e-03
1.20424e+00	2.022315907270266e-03
1.21225e+00	1.426563052969797e-03
1.22026e+00	3.896809586401031e-04
1.22828e+00	-2.652010710518796e-04
1.23629e+00	1.642221262000107e-03
1.24430e+00	7.823589958644249e-04
1.25231e+00	1.684038223539085e-04
1.26032e+00	-1.075684798612403e-03
1.26833e+00	-1.585203377862276e-03
1.27634e+00	1.592678833189030e-04
1.28435e+00	-4.928245995755187e-04
1.29236e+00	-1.161940851889410e-03
1.30037e+00	-1.560382453849418e-03
1.30838e+00	-1.195914890416963e-03
1.31639e+00	8.452360764685905e-04
1.32440e+00	9.991951033025196e-04
1.33241e+00	4.257316157124604e-04
1.34042e+00	-1.851095182490920e-04
1.34843e+00	3.399105174454975e-04
1.35644e+00	2.962421188463840e-03
1.36445e+00	1.697005761015374e-03
1.37246e+00	1.052845934203045e-03
1.38047e+00	2.152308323240210e-04
1.38848e+00	-3.781765086017854e-04
1.39649e+00	9.982691944487468e-04
1.40450e+00	1.271208181522112e-04
1.41251e+00	-8.377138823819646e-04
1.42052e+00	-1.478058286136631e-03
1.42854e+00	-1.359605409716253e-03
1.43655e+00	6.884782303071866e-04
1.44456e+00	3.283023940263900e-04
1.45257e+00	-4.868450298449519e-04
1.46058e+00	1.883832960603726e-05
1.46859e+00	-1.193454729066838e-03
1.47660e+00	2.013849143242875e-03
1.48461e+00	1.301537121688930e-03
1.49262e+00	1.966915567254196e-04
1.50063e+00	8.961247732313111e-04
1.50864e+00	6.020361212587443e-04
1.51665e+00	2.422579112260345e-03
1.52466e+00	1.089629145957563e-03
1.53267e+00	8.677377472530464e-04
1.54068e+00	6.802738802018071e-04
1.54869e+00	-6.362681105420350e-04
1.55670e+00	6.828702558433207e-04
1.56471e+00	2.067989535736400e-04
1.57272e+00	-9.219772957613350e-04
1.58073e+00	-1.375895926355650e-03
1.58874e+00	-1.240918194935222e-03
1.59675e+00	7.073495685445059e-04
1.60476e+00	1.921762099655810e-04
1.61277e+00	3.785445560117535e-04
1.62079e+00	-2.604142977317723e-04
1.62880e+00	-5.995927662497152e-04
1.63681e+00	1.960165668364732e-03
1.64482e+00	1.676676367843838e-03
1.65283e+00	1.205460375751536e-03
1.66084e+00	7.793167519868845e-04
1.66885e+00	-1.530552790338785e-04
1.67686e+00	1.670551301559841e-03
1.68487e+00	4.818903908087584e-04
1.69288e+00	-5.997060300030929e-04
1.70089e+00	-7.115562646753058e-04
1.70890e+00	-1.204954059637259e-03
1.71691e+00	2.181190640805389e-04
1.72492e+00	-6.837394243295979e-04
1.73293e+00	-1.371329712308650e-03
1.74094e+00	-1.687797272102601e-03
1.74895e+00	-1.749611872402761e-03
1.75696e+00	5.044286965428560e-04
1.76497e+00	6.465203892370712e-04
1.77298e+00	1.788966325172732e-04
1.78099e+00	-3.234174000703196e-05
1.78900e+00	-2.566047291830756e-04
1.79701e+00	2.315977446087511e-03
1.80502e+00	9.775773341820751e-04
1.81304e+00	2.069493485283677e-04
1.82105e+00	-2.126930924272325e-04
1.82906e+00	-3.405376575582043e-04
1.83707e+00	8.073086651752013e-04
1.84508e+00	2.456250903480329e-04
1.85309e+00	-7.568837739789160e-04
1.86110e+00	-1.397905371236297e-03
1.86911e+00	-2.020631948630240e-03
1.87712e+00	-7.320018841490405e-04
1.88513e+00	-1.185139933330633e-03
1.89314e+00	-2.051167974011565e-03
1.90115e+00	-2.006832515651121e-03
1.90916e+00	-1.307242511015991e-03
1.91717e+00	5.897706733512293e-04
1.92518e+00	4.974122754469407e-04
1.93319e+00	5.828640716727328e-04
1.94120e+00	1.631712918532467e-03
1.94921e+00	2.038927385767308e-03
1.95722e+00	4.315619572058923e-03
1.96523e+00	4.036876464712598e-03
1.97324e+00	2.779106966742239e-03
1.98125e+00	2.037339188837784e-03
1.98926e+00	7.456014644269034e-04
1.99728e+00	1.423088319396969e-03
2.00529e+00	2.141512662936223e-04
2.01330e+00	-8.981530464065203e-04
2.02131e+00	-3.097790004909504e-03
2.02932e+00	-3.626527777998590e-03
2.03733e+00	-2.276186506286141e-03
2.04534e+00	-2.491683264261701e-03
2.05335e+00	-3.426870620808004e-03
2.06136e+00	-3.216814828314667e-03
2.06937e+00	-3.958003784686214e-03
2.07738e+00	-1.334434822132376e-03
2.08539e+00	-9.153762699124962e-04
2.09340e+00	-1.497006266312595e-03
2.10141e+00	-8.331721494259574e-04
2.10942e+00	-3.660773309484955e-04
2.11743e+00	1.059960406723408e-03
2.12544e+00	-7.331168110873385e-01
2.13345e+00	-7.325767970224395e-01
2.14146e+00	-7.320371807320639e-01
2.14947e+00	-7.314979619232114e-01
2.15748e+00	-7.309591403030965e-01
2.16549e+00	-7.304207155791500e-01
2.17350e+00	-7.298826874590182e-01
2.18151e+00	-7.293450556505626e-01
2.18953e+00	0.000000000000000e+00
2.19754e+00	0.000000000000000e+00
2.20555e+00	0.000000000000000e+00
2.21356e+00	0.000000000000000e+00
2.22157e+00	0.000000000000000e+00
2.22958e+00	0.000000000000000e+00
2.23759e+00	0.000000000000000e+00
2.24560e+00	0.000000000000000e+00
2.25361e+00	0.000000000000000e+00
2.26162e+00	0.000000000000000e+00
2.26963e+00	0.000000000000000e+00
2.27764e+00	0.000000000000000e+00
2.28565e+00	0.000000000000000e+00
2.29366e+00	0.000000000000000e+00
2.30167e+00	0.000000000000000e+00
2.30968e+00	0.000000000000000e+00
2.31769e+00	0.000000000000000e+00
2.32570e+00	0.000000000000000e+00
2.33371e+00	0.000000000000000e+00
2.34172e+00	0.000000000000000e+00
2.34973e+00	0.000000000000000e+00
2.35774e+00	0.000000000000000e+00
2.36575e+00	0.000000000000000e+00
2.37376e+00	0.000000000000000e+00
2.38178e+00	0.000000000000000e+00
2.38979e+00	0.000000000000000e+00
2.39780e+00	0.000000000000000e+00
2.40581e+00	0.000000000000000e+00
2.41382e+00	0.000000000000000e+00
2.42183e+00	0.000000000000000e+00
2.42984e+00	0.000000000000000e+00
2.43785e+00	0.000000000000000e+00
2.44586e+00	0.000000000000000e+00
2.45387e+00	0.000000000000000e+00
2.46188e+00	0.000000000000000e+00
2.46989e+00	0.000000000000000e+00
2.47790e+00	0.000000000000000e+00
2.48591e+00	0.000000000000000e+00
2.49392e+00	0.000000000000000e+00
2.50193e+00	0.000000000000000e+00
2.50994e+00	0.000000000000000e+00
2.51795e+00	0.000000000000000e+00
2.52596e+00	0.000000000000000e+00
2.53397e+00	0.000000000000000e+00
2.54198e+00	0.000000000000000e+00
2.54999e+00	0.000000000000000e+00
2.55800e+00	0.000000000000000e+00
2.56601e+00	0.000000000000000e+00
2.57403e+00	0.000000000000000e+00
2.58204e+00	0.000000000000000e+00
2.59005e+00	0.000000000000000e+00
2.59806e+00	0.000000000000000e+00
2.60607e+00	0.000000000000000e+00
2.61408e+00	0.000000000000000e+00
2.62209e+00	0.000000000000000e+00
2.63010e+00	0.000000000000000e+00
2.63811e+00	0.000000000000000e+00
2.64612e+00	0.000000000000000e+00
2.65413e+00	0.000000000000000e+00
2.66214e+00	0.000000000000000e+00
2.67015e+00	0.000000000000000e+00
2.67816e+00	0.000000000000000e+00
2.68617e+00	0.000000000000000e+00
2.69418e+00	0.000000000000000e+00
2.70219e+00	0.000000000000000e+00
2.71020e+00	0.000000000000000e+00
2.71821e+00	0.000000000000000e+00
2.72622e+00	0.000000000000000e+00
2.73423e+00	0.000000000000000e+00
2.74224e+00	0.000000000000000e+00
2.75025e+00	0.000000000000000e+00
2.75826e+00	0.000000000000000e+00
2.76628e+00	0.000000000000000e+00
2.77429e+00	0.000000000000000e+00
2.78230e+00	0.000000000000000e+00
2.79031e+00	0.000000000000000e+00
2.79832e+00	0.000000000000000e+00
2.80633e+00	0.000000000000000e+00
2.81434e+00	0.000000000000000e+00
2.82235e+00	0.000000000000000e+00
2.83036e+00	0.000000000000000e+00
2.83837e+00	0.000000000000000e+00
2.84638e+00	0.000000000000000e+00
2.85439e+00	0.000000000000000e+00
2.86240e+00	0.000000000000000e+00
2.87041e+00	0.000000000000000e+00
2.87842e+00	0.000000000000000e+00
2.88643e+00	0.000000000000000e+00
2.89444e+00	0.000000000000000e+00
2.90245e+00	0.000000000000000e+00
2.91046e+00	0.000000000000000e+00
2.91847e+00	0.000000000000000e+00
2.92648e+00	0.000000000000000e+00
2.93449e+00	0.000000000000000e+00
2.94250e+00	0.000000000000000e+00
2.95051e+00	0.000000000000000e+00
2.95852e+00	0.000000000000000e+00
2.96654e+00	0.000000000000000e+00
2.97455e+00	0.000000000000000e+00
2.98256e+00	0.000000000000000e+00
2.99057e+00	0.000000000000000e+00
2.99858e+00	0.000000000000000e+00
3.00659e+00	0.000000000000000e+00
3.01460e+00	0.000000000000000e+00
3.02261e+00	0.000000000000000e+00
3.03062e+00	0.000000000000000e+00
3.03863e+00	0.000000000000000e+00
3.04664e+00	0.000000000000000e+00
3.05465e+00	0.000000000000000e+00
3.06266e+00	0.000000000000000e+00
3.07067e+00	0.000000000000000e+00
3.07868e+00	0.000000000000000e+00
3.08669e+00	0.000000000000000e+00
3.09470e+00	0.000000000000000e+00
3.10271e+00	0.000000000000000e+00
3.11072e+00	0.000000000000000e+00
3.11873e+00	0.000000000000000e+00
3.12674e+00	0.000000000000000e+00
3.13475e+00	0.000000000000000e+00
3.14276e+00	0.000000000000000e+00
3.15077e+00	0.000000000000000e+00
3.15879e+00	0.000000000000000e+00
3.16680e+00	0.000000000000000e+00
3.17481e+00	0.000000000000000e+00
3.18282e+00	0.000000000000000e+00
3.19083e+00	0.000000000000000e+00
3.19884e+00	0.000000000000000e+00
3.20685e+00	0.000000000000000e+00
3.21486e+00	0.000000000000000e+00
3.22287e+00	0.000000000000000e+00
3.23088e+00	0.000000000000000e+00
3.23889e+00	0.000000000000000e+00
3.24690e+00	0.000000000000000e+00
3.25491e+00	0.000000000000000e+00
3.26292e+00	0.000000000000000e+00
3.27093e+00	0.000000000000000e+00
3.27894e+00	0.000000000000000e+00
3.28695e+00	0.000000000000000e+00
3.29496e+00	0.000000000000000e+00
3.30297e+00	0.000000000000000e+00
3.31098e+00	0.000000000000000e+00
3.31899e+00	0.000000000000000e+00
3.32700e+00	0.000000000000000e+00
3.33501e+00	0.000000000000000e+00
3.34302e+00	0.000000000000000e+00
3.35104e+00	0.000000000000000e+00
3.35905e+00	0.000000000000000e+00
3.36706e+00	0.000000000000000e+00
3.37507e+00	0.000000000000000e+00
3.38308e+00	0.000000000000000e+00
3.39109e+00	0.000000000000000e+00
3.39910e+00	0.000000000000000e+00
3.40711e+00	0.000000000000000e+00
3.41512e+00	0.000000000000000e+00
3.42313e+00	0.000000000000000e+00
3.43114e+00	0.000000000000000e+00
3.43915e+00	0.000000000000000e+00
3.44716e+00	0.000000000000000e+00
3.45517e+00	0.000000000000000e+00
3.46318e+00	0.000000000000000e+00
3.47119e+00	0.000000000000000e+00
3.47920e+00	0.000000000000000e+00
3.48721e+00	0.000000000000000e+00
3.49522e+00	0.000000000000000e+00
3.50323e+00	0.000000000000000e+00
3.51124e+00	0.000000000000000e+00
3.51925e+00	0.000000000000000e+00
3.52726e+00	0.000000000000000e+00
3.53527e+00	0.000000000000000e+00
3.54329e+00	0.000000000000000e+00
3.55130e+00	0.000000000000000e+00
3.55931e+00	0.000000000000000e+00
3.56732e+00	0.000000000000000e+00
3.57533e+00	0.000000000000000e+00
3.58334e+00	0.000000000000000e+00
3.59135e+00	0.000000000000000e+00
3.59936e+00	0.000000000000000e+00
3.60737e+00	0.000000000000000e+00
3.61538e+00	0.000000000000000e+00
3.62339e+00	0.000000000000000e+00
3.63140e+00	0.000000000000000e+00
3.63941e+00	0.000000000000000e+00
3.64742e+00	0.000000000000000e+00
3.65543e+00	0.000000000000000e+00
3.66344e+00	0.000000000000000e+00
3.67145e+00	0.000000000000000e+00
3.67946e+00	0.000000000000000e+00
3.68747e+00	0.000000000000000e+00
3.69548e+00	0.000000000000000e+00
3.70349e+00	0.000000000000000e+00
3.71150e+00	0.000000000000000e+00
3.71951e+00	0.000000000000000e+00
3.72752e+00	0.000000000000000e+00
3.73554e+00	0.000000000000000e+00
3.74355e+00	0.000000000000000e+00
3.75156e+00	0.000000000000000e+00
3.75957e+00	0.000000000000000e+00
3.76758e+00	0.000000000000000e+00
3.77559e+00	0.000000000000000e+00
3.78360e+00	0.000000000000000e+00
3.79161e+00	0.000000000000000e+00
3.79962e+00	0.000000000000000e+00
3.80763e+00	0.000000000000000e+00
3.81564e+00	0.000000000000000e+00
3.82365e+00	0.000000000000000e+00
3.83166e+00	0.000000000000000e+00
3.83967e+00	0.000000000000000e+00
3.84768e+00	0.000000000000000e+00
3.85569e+00	0.000000000000000e+00
3.86370e+00	0.000000000000000e+00
3.87171e+00	0.000000000000000e+00
3.87972e+00	0.000000000000000e+00
3.88773e+00	0.000000000000000e+00
3.89574e+00	0.000000000000000e+00
3.90375e+00	0.000000000000000e+00
3.91176e+00	0.000000000000000e+00
3.91978e+00	0.000000000000000e+00
3.92779e+00	0.000000000000000e+00
3.93580e+00	0.000000000000000e+00
3.94381e+00	0.000000000000000e+00
3.95182e+00	0.000000000000000e+00
3.95983e+00	0.000000000000000e+00
3.96784e+00	0.000000000000000e+00
3.97585e+00	0.000000000000000e+00
3.98386e+00	0.000000000000000e+00
3.99187e+00	0.000000000000000e+00
3.99988e+00	0.000000000000000e+00
4.00789e+00	0.000000000000000e+00
4.01590e+00	0.000000000000000e+00
4.02391e+00	0.000000000000000e+00
4.03192e+00	0.000000000000000e+00
4.03993e+00	0.000000000000000e+00
4.04794e+00	0.000000000000000e+00
4.05595e+00	0.000000000000000e+00
4.06396e+00	0.000000000000000e+00
4.07197e+00	0.000000000000000e+00
4.07998e+00	0.000000000000000e+00
4.08799e+00	0.000000000000000e+00
4.09600e+00	0.000000000000000e+00
4.10401e+00	0.000000000000000e+00
4.11203e+00	0.000000000000000e+00
4.12004e+00	0.000000000000000e+00
4.12805e+00	0.000000000000000e+00
4.13606e+00	0.000000000000000e+00
4.14407e+00	0.000000000000000e+00
4.15208e+00	0.000000000000000e+00
4.16009e+00	0.000000000000000e+00
4.16810e+00	0.000000000000000e+00
4.17611e+00	0.000000000000000e+00
4.18412e+00	0.000000000000000e+00
4.19213e+00	0.000000000000000e+00
4.20014e+00	0.000000000000000e+00
4.20815e+00	0.000000000000000e+00
4.21616e+00	0.000000000000000e+00
4.22417e+00	0.000000000000000e+00
4.23218e+00	0.000000000000000e+00
4.24019e+00	0.000000000000000e+00
4.24820e+00	0.000000000000000e+00
4.25621e+00	0.000000000000000e+00
4.26422e+00	0.000000000000000e+00
4.27223e+00	0.000000000000000e+00
4.28024e+00	0.000000000000000e+00
4.28825e+00	0.000000000000000e+00
4.29626e+00	0.000000000000000e+00
4.30427e+00	0.000000000000000e+00
4.31229e+00	0.000000000000000e+00
4.32030e+00	0.000000000000000e+00
4.32831e+00	0.000000000000000e+00
4.33632e+00	0.000000000000000e+00
4.34433e+00	0.000000000000000e+00
4.35234e+00	0.000000000000000e+00
4.36035e+00	0.000000000000000e+00
4.36836e+00	0.000000000000000e+00
4.37637e+00	0.000000000000000e+00
4.38438e+00	0.000000000000000e+00
4.39239e+00	0.000000000000000e+00
4.40040e+00	0.000000000000000e+00
4.40841e+00	0.000000000000000e+00
4.41642e+00	0.000000000000000e+00
4.42443e+00	0.000000000000000e+00
4.43244e+00	0.000000000000000e+00
4.44045e+00	0.000000000000000e+00
4.44846e+00	0.000000000000000e+00
4.45647e+00	0.000000000000000e+00
4.46448e+00	0.000000000000000e+00
4.47249e+00	0.000000000000000e+00
4.48050e+00	0.000000000000000e+00
4.48851e+00	0.000000000000000e+00
4.49652e+00	0.000000000000000e+00
4.50454e+00	0.000000000000000e+00
4.51255e+00	0.000000000000000e+00
4.52056e+00	0.000000000000000e+00
4.52857e+00	0.000000000000000e+00
4.53658e+00	0.000000000000000e+00
4.54459e+00	0.000000000000000e+00
4.55260e+00	0.000000000000000e+00
4.56061e+00	0.000000000000000e+00
4.56862e+00	0.000000000000000e+00
4.57663e+00	0.000000000000000e+00
4.58464e+00	0.000000000000000e+00
4.59265e+00	0.000000000000000e+00
4.60066e+00	0.000000000000000e+00
4.60867e+00	0.000000000000000e+00
4.61668e+00	0.000000000000000e+00
4.62469e+00	0.000000000000000e+00
4.63270e+00	0.000000000000000e+00
