% signal t-range:	0.0048000000	2.8048000
% breakpoint	1	3.7514286
% svcs	1	0	0	0
% svcs	2	0	27	27
1.0000000	-5.1595508e-8	-5.1595508e-8	-5.1595508e-8
1.0514286	2.6486381e-7	2.6486381e-7	2.6486381e-7
1.1028571	3.1427835e-7	3.1427835e-7	3.1427835e-7
1.1542857	1.7641288e-7	1.7641288e-7	1.7641288e-7
1.2057143	-1.1249901e-7	-1.1249901e-7	-1.1249901e-7
1.2571429	-1.9545409e-7	-1.9545409e-7	-1.9545409e-7
1.3085714	-2.9409039e-7	-2.9409039e-7	-2.9409039e-7
1.3600000	-5.4929079e-7	-5.4929079e-7	-5.4929079e-7
1.4114286	-7.0508876e-7	-7.0508876e-7	-7.0508876e-7
1.4628571	-7.8199061e-7	-7.8199061e-7	-7.8199061e-7
1.5142857	-8.6396265e-7	-8.6396265e-7	-8.6396265e-7
1.5657143	-9.5685272e-7	-9.5685272e-7	-9.5685272e-7
1.6171429	-0.0000010448657	-0.0000010448657	-0.0000010448657
1.6685714	-0.0000011509852	-0.0000011509852	-0.0000011509852
1.7200000	-0.0000012518850	-0.0000012518850	-0.0000012518850
1.7714286	-0.0000013790097	-0.0000013790097	-0.0000013790097
1.8228571	-0.0000014991895	-0.0000014991895	-0.0000014991895
1.8742857	-0.0000016285958	-0.0000016285958	-0.0000016285958
1.9257143	-0.0000017311606	-0.0000017311606	-0.0000017311606
1.9771429	-0.0000019096633	-0.0000019096633	-0.0000019096633
2.0285714	-0.0000020192174	-0.0000020192174	-0.0000020192174
2.0800000	-0.0000021748646	-0.0000021748646	-0.0000021748646
2.1314286	-0.0000023519652	-0.0000023519652	-0.0000023519652
2.1828571	-0.0000025235317	-0.0000025235317	-0.0000025235317
2.2342857	-0.0000026866143	-0.0000026866143	-0.0000026866143
2.2857143	-0.0000028636973	-0.0000028636973	-0.0000028636973
2.3371429	-0.0000031118713	-0.0000031118713	-0.0000031118713
2.3885714	-0.0000033464229	-0.0000033464229	-0.0000033464229
2.4400000	-0.0000034718878	-0.0000034718878	-0.0000034718878
2.4914286	-0.0000037868181	-0.0000037868181	-0.0000037868181
2.5428571	-0.0000039559364	-0.0000039559364	-0.0000039559364
2.5942857	-0.0000042556475	-0.0000042556475	-0.0000042556475
2.6457143	-0.0000044351518	-0.0000044351518	-0.0000044351518
2.6971429	-0.0000048185359	-0.0000048185359	-0.0000048185359
2.7485714	-0.0000049267974	-0.0000049267974	-0.0000049267974
2.8000000	-0.0000053553149	-0.0000053553149	-0.0000053553149
2.8514286	-0.0000056375735	-0.0000056375735	-0.0000056375735
2.9028571	-0.0000057874753	-0.0000057874753	-0.0000057874753
2.9542857	-0.0000062637002	-0.0000062637002	-0.0000062637002
3.0057143	-0.0000066643558	-0.0000066643558	-0.0000066643558
3.0571429	-0.0000067969289	-0.0000067969289	-0.0000067969289
3.1085714	-0.0000071130874	-0.0000071130874	-0.0000071130874
3.1600000	-0.0000076731796	-0.0000076731796	-0.0000076731796
3.2114286	-0.0000081531765	-0.0000081531765	-0.0000081531765
3.2628571	-0.0000083763080	-0.0000083763080	-0.0000083763080
3.3142857	-0.0000085689159	-0.0000085689159	-0.0000085689159
3.3657143	-0.0000090092010	-0.0000090092010	-0.0000090092010
3.4171429	-0.0000096381581	-0.0000096381581	-0.0000096381581
3.4685714	-0.000010264077	-0.000010264077	-0.000010264077
3.5200000	-0.000010732382	-0.000010732382	-0.000010732382
3.5714286	-0.000011006736	-0.000011006736	-0.000011006736
3.6228571	-0.000011230496	-0.000011230496	-0.000011230496
3.6742857	-0.000011595148	-0.000011595148	-0.000011595148
3.7257143	-0.000012167158	-0.000012167158	-0.000012167158
3.7771429	0.00066916720	0.00066916720	0.00066916720
3.8285714	0.0014050914	0.0014050914	0.0014050914
3.8800000	0.0022326501	0.0022326501	0.0022326501
3.9314286	0.0034505135	0.0034505135	0.0034505135
3.9828571	0.0051275574	0.0051275574	0.0051275574
4.0342857	0.0068418292	0.0068418292	0.0068418292
4.0857143	0.0079794000	0.0079794000	0.0079794000
4.1371429	0.0081533508	0.0081533508	0.0081533508
4.1885714	0.0073731164	0.0073731164	0.0073731164
4.2400000	0.0059359273	0.0059359273	0.0059359273
4.2914286	0.0042144728	0.0042144728	0.0042144728
4.3428571	0.0025012788	0.0025012788	0.0025012788
4.3942857	0.00096226033	0.00096226033	0.00096226033
4.4457143	-0.00033271941	-0.00033271941	-0.00033271941
4.4971429	-0.0013580318	-0.0013580318	-0.0013580318
4.5485714	-0.0020969056	-0.0020969056	-0.0020969056
4.6000000	-0.0025322939	-0.0025322939	-0.0025322939
4.6514286	-0.0026554122	-0.0026554122	-0.0026554122
4.7028571	-0.0024783899	-0.0024783899	-0.0024783899
4.7542857	-0.0020412547	-0.0020412547	-0.0020412547
4.8057143	-0.0014098837	-0.0014098837	-0.0014098837
4.8571429	-0.00066660299	-0.00066660299	-0.00066660299
4.9085714	0.00010256865	0.00010256865	0.00010256865
4.9600000	0.00082005059	0.00082005059	0.00082005059
5.0114286	0.0014255295	0.0014255295	0.0014255295
5.0628571	0.0018804179	0.0018804179	0.0018804179
5.1142857	0.0021681830	0.0021681830	0.0021681830
5.1657143	0.0022915645	0.0022915645	0.0022915645
5.2171429	0.0022679666	0.0022679666	0.0022679666
5.2685714	0.0021242212	0.0021242212	0.0021242212
5.3200000	0.0018916283	0.0018916283	0.0018916283
5.3714286	0.0016018405	0.0016018405	0.0016018405
5.4228571	0.0012838464	0.0012838464	0.0012838464
5.4742857	0.00096207111	0.00096207111	0.00096207111
5.5257143	0.00065546267	0.00065546267	0.00065546267
5.5771429	0.00037735447	0.00037735447	0.00037735447
5.6285714	0.00013587562	0.00013587562	0.00013587562
5.6800000	-0.000065303592	-0.000065303592	-0.000065303592
5.7314286	-0.00022606693	-0.00022606693	-0.00022606693
5.7828571	-0.00034892046	-0.00034892046	-0.00034892046
5.8342857	-0.00043812387	-0.00043812387	-0.00043812387
5.8857143	-0.00049893851	-0.00049893851	-0.00049893851
5.9371429	-0.00053701680	-0.00053701680	-0.00053701680
5.9885714	-0.00055793709	-0.00055793709	-0.00055793709
6.0400000	-0.00056687443	-0.00056687443	-0.00056687443
6.0914286	-0.00056838965	-0.00056838965	-0.00056838965
6.1428571	-0.00056631563	-0.00056631563	-0.00056631563
6.1942857	-0.00056371946	-0.00056371946	-0.00056371946
6.2457143	-0.00056292006	-0.00056292006	-0.00056292006
6.2971429	-0.00056554406	-0.00056554406	-0.00056554406
6.3485714	-0.00057260505	-0.00057260505	-0.00057260505
6.4000000	-0.00058459503	-0.00058459503	-0.00058459503
6.4514286	-0.00060157917	-0.00060157917	-0.00060157917
6.5028571	-0.00062328779	-0.00062328779	-0.00062328779
6.5542857	-0.00064920151	-0.00064920151	-0.00064920151
6.6057143	-0.00067862697	-0.00067862697	-0.00067862697
6.6571429	-0.00071076208	-0.00071076208	-0.00071076208
6.7085714	-0.00074475039	-0.00074475039	-0.00074475039
6.7600000	-0.00077972505	-0.00077972505	-0.00077972505
6.8114286	-0.00081484309	-0.00081484309	-0.00081484309
6.8628571	-0.00084931104	-0.00084931104	-0.00084931104
6.9142857	-0.00088240310	-0.00088240310	-0.00088240310
6.9657143	-0.00091347300	-0.00091347300	-0.00091347300
7.0171429	-0.00094196059	-0.00094196059	-0.00094196059
7.0685714	-0.00096739428	-0.00096739428	-0.00096739428
7.1200000	-0.00098939027	-0.00098939027	-0.00098939027
7.1714286	-0.0010076492	-0.0010076492	-0.0010076492
7.2228571	-0.0010219513	-0.0010219513	-0.0010219513
7.2742857	-0.0010321499	-0.0010321499	-0.0010321499
7.3257143	-0.0010381647	-0.0010381647	-0.0010381647
7.3771429	-0.0010399744	-0.0010399744	-0.0010399744
7.4285714	-0.0010376092	-0.0010376092	-0.0010376092
7.4800000	-0.0010311437	-0.0010311437	-0.0010311437
7.5314286	-0.0010206901	-0.0010206901	-0.0010206901
7.5828571	-0.0010063914	-0.0010063914	-0.0010063914
7.6342857	-0.00098841572	-0.00098841572	-0.00098841572
7.6857143	-0.00096695054	-0.00096695054	-0.00096695054
7.7371429	-0.00094219812	-0.00094219812	-0.00094219812
7.7885714	-0.00091437096	-0.00091437096	-0.00091437096
7.8400000	-0.00088368802	-0.00088368802	-0.00088368802
7.8914286	-0.00085037145	-0.00085037145	-0.00085037145
7.9428571	-0.00081464372	-0.00081464372	-0.00081464372
7.9942857	-0.00077672526	-0.00077672526	-0.00077672526
8.0457143	-0.00073683247	-0.00073683247	-0.00073683247
8.0971429	-0.00069517609	-0.00069517609	-0.00069517609
8.1485714	-0.00065195988	-0.00065195988	-0.00065195988
8.2000000	-0.00060737964	-0.00060737964	-0.00060737964
8.2514286	-0.00056162242	-0.00056162242	-0.00056162242
8.3028571	-0.00051486597	-0.00051486597	-0.00051486597
8.3542857	-0.00046727838	-0.00046727838	-0.00046727838
8.4057143	-0.00041901787	-0.00041901787	-0.00041901787
8.4571429	-0.00037023277	-0.00037023277	-0.00037023277
8.5085714	-0.00032106148	-0.00032106148	-0.00032106148
8.5600000	-0.00027163271	-0.00027163271	-0.00027163271
8.6114286	-0.00022206560	-0.00022206560	-0.00022206560
8.6628571	-0.00017247007	-0.00017247007	-0.00017247007
8.7142857	-0.00012294709	-0.00012294709	-0.00012294709
8.7657143	-0.000073589069	-0.000073589069	-0.000073589069
8.8171429	-0.000024480213	-0.000024480213	-0.000024480213
8.8685714	0.000024303054	0.000024303054	0.000024303054
8.9200000	0.000072691698	0.000072691698	0.000072691698
8.9714286	0.00012062365	0.00012062365	0.00012062365
9.0228571	0.00016804340	0.00016804340	0.00016804340
9.0742857	0.00021490159	0.00021490159	0.00021490159
9.1257143	0.00026115461	0.00026115461	0.00026115461
9.1771429	0.00030676421	0.00030676421	0.00030676421
9.2285714	0.00035169713	0.00035169713	0.00035169713
9.2800000	0.00039592473	0.00039592473	0.00039592473
9.3314286	0.00043942266	0.00043942266	0.00043942266
9.3828571	0.00048217050	0.00048217050	0.00048217050
9.4342857	0.00052415147	0.00052415147	0.00052415147
9.4857143	0.00056535214	0.00056535214	0.00056535214
9.5371429	0.00060576212	0.00060576212	0.00060576212
9.5885714	0.00064537382	0.00064537382	0.00064537382
9.6400000	0.00068418218	0.00068418218	0.00068418218
9.6914286	0.00072218449	0.00072218449	0.00072218449
9.7428571	0.00075938009	0.00075938009	0.00075938009
9.7942857	0.00079577024	0.00079577024	0.00079577024
9.8457143	0.00083135789	0.00083135789	0.00083135789
9.8971429	0.00086614753	0.00086614753	0.00086614753
9.9485714	0.00090014501	0.00090014501	0.00090014501
10.000000	0.00093335741	0.00093335741	0.00093335741
