% signal t-range:	0.00080000000	3.9848000
% breakpoint	1	3.8644578
% svcs	1	0	0	0
% svcs	2	0	20	20
1.0000000	-1.2395494e-8	-1.2395494e-8	-1.2395494e-8
1.0180723	-1.5485059e-8	-1.5485059e-8	-1.5485059e-8
1.0361446	-1.8256824e-8	-1.8256824e-8	-1.8256824e-8
1.0542169	-2.4907140e-8	-2.4907140e-8	-2.4907140e-8
1.0722892	-3.1702127e-8	-3.1702127e-8	-3.1702127e-8
1.0903614	-3.2664348e-8	-3.2664348e-8	-3.2664348e-8
1.1084337	-3.4341536e-8	-3.4341536e-8	-3.4341536e-8
1.1265060	-3.5337838e-8	-3.5337838e-8	-3.5337838e-8
1.1445783	-3.7108029e-8	-3.7108029e-8	-3.7108029e-8
1.1626506	-4.0097192e-8	-4.0097192e-8	-4.0097192e-8
1.1807229	-4.3178302e-8	-4.3178302e-8	-4.3178302e-8
1.1987952	-4.7311236e-8	-4.7311236e-8	-4.7311236e-8
1.2168675	-4.3803074e-8	-4.3803074e-8	-4.3803074e-8
1.2349398	-4.3156776e-8	-4.3156776e-8	-4.3156776e-8
1.2530120	-5.4603049e-8	-5.4603049e-8	-5.4603049e-8
1.2710843	-6.5606613e-8	-6.5606613e-8	-6.5606613e-8
1.2891566	-7.6603009e-8	-7.6603009e-8	-7.6603009e-8
1.3072289	-8.8600706e-8	-8.8600706e-8	-8.8600706e-8
1.3253012	-1.0026796e-7	-1.0026796e-7	-1.0026796e-7
1.3433735	-1.1409241e-7	-1.1409241e-7	-1.1409241e-7
1.3614458	-1.2858469e-7	-1.2858469e-7	-1.2858469e-7
1.3795181	-1.4311995e-7	-1.4311995e-7	-1.4311995e-7
1.3975904	-1.5684545e-7	-1.5684545e-7	-1.5684545e-7
1.4156627	-1.7490189e-7	-1.7490189e-7	-1.7490189e-7
1.4337349	-1.8988084e-7	-1.8988084e-7	-1.8988084e-7
1.4518072	-2.0596888e-7	-2.0596888e-7	-2.0596888e-7
1.4698795	-2.2454453e-7	-2.2454453e-7	-2.2454453e-7
1.4879518	-2.4681707e-7	-2.4681707e-7	-2.4681707e-7
1.5060241	-2.5898964e-7	-2.5898964e-7	-2.5898964e-7
1.5240964	-2.9017321e-7	-2.9017321e-7	-2.9017321e-7
1.5421687	-3.1461111e-7	-3.1461111e-7	-3.1461111e-7
1.5602410	-3.4397131e-7	-3.4397131e-7	-3.4397131e-7
1.5783133	-3.5040261e-7	-3.5040261e-7	-3.5040261e-7
1.5963855	-3.6363689e-7	-3.6363689e-7	-3.6363689e-7
1.6144578	-3.7594241e-7	-3.7594241e-7	-3.7594241e-7
1.6325301	-3.8794293e-7	-3.8794293e-7	-3.8794293e-7
1.6506024	-4.0189580e-7	-4.0189580e-7	-4.0189580e-7
1.6686747	-4.1419005e-7	-4.1419005e-7	-4.1419005e-7
1.6867470	-4.2818174e-7	-4.2818174e-7	-4.2818174e-7
1.7048193	-4.4259435e-7	-4.4259435e-7	-4.4259435e-7
1.7228916	-4.5560192e-7	-4.5560192e-7	-4.5560192e-7
1.7409639	-4.6988172e-7	-4.6988172e-7	-4.6988172e-7
1.7590361	-4.8533921e-7	-4.8533921e-7	-4.8533921e-7
1.7771084	-5.0094489e-7	-5.0094489e-7	-5.0094489e-7
1.7951807	-5.1648710e-7	-5.1648710e-7	-5.1648710e-7
1.8132530	-5.3216865e-7	-5.3216865e-7	-5.3216865e-7
1.8313253	-5.4816328e-7	-5.4816328e-7	-5.4816328e-7
1.8493976	-5.6448449e-7	-5.6448449e-7	-5.6448449e-7
1.8674699	-5.8096761e-7	-5.8096761e-7	-5.8096761e-7
1.8855422	-5.9735262e-7	-5.9735262e-7	-5.9735262e-7
1.9036145	-6.1363508e-7	-6.1363508e-7	-6.1363508e-7
1.9216867	-6.3058380e-7	-6.3058380e-7	-6.3058380e-7
1.9397590	-6.4941155e-7	-6.4941155e-7	-6.4941155e-7
1.9578313	-6.6918477e-7	-6.6918477e-7	-6.6918477e-7
1.9759036	-6.8686021e-7	-6.8686021e-7	-6.8686021e-7
1.9939759	-7.0401051e-7	-7.0401051e-7	-7.0401051e-7
2.0120482	-7.2523597e-7	-7.2523597e-7	-7.2523597e-7
2.0301205	-7.4524316e-7	-7.4524316e-7	-7.4524316e-7
2.0481928	-7.6266919e-7	-7.6266919e-7	-7.6266919e-7
2.0662651	-7.8586817e-7	-7.8586817e-7	-7.8586817e-7
2.0843373	-8.0487428e-7	-8.0487428e-7	-8.0487428e-7
2.1024096	-8.2586177e-7	-8.2586177e-7	-8.2586177e-7
2.1204819	-8.4875419e-7	-8.4875419e-7	-8.4875419e-7
2.1385542	-8.6798745e-7	-8.6798745e-7	-8.6798745e-7
2.1566265	-8.9327248e-7	-8.9327248e-7	-8.9327248e-7
2.1746988	-9.1232585e-7	-9.1232585e-7	-9.1232585e-7
2.1927711	-9.3873755e-7	-9.3873755e-7	-9.3873755e-7
2.2108434	-9.5870419e-7	-9.5870419e-7	-9.5870419e-7
2.2289157	-9.8501316e-7	-9.8501316e-7	-9.8501316e-7
2.2469880	-0.0000010076690	-0.0000010076690	-0.0000010076690
2.2650602	-0.0000010316410	-0.0000010316410	-0.0000010316410
2.2831325	-0.0000010592348	-0.0000010592348	-0.0000010592348
2.3012048	-0.0000010797657	-0.0000010797657	-0.0000010797657
2.3192771	-0.0000011103400	-0.0000011103400	-0.0000011103400
2.3373494	-0.0000011334528	-0.0000011334528	-0.0000011334528
2.3554217	-0.0000011588023	-0.0000011588023	-0.0000011588023
2.3734940	-0.0000011904280	-0.0000011904280	-0.0000011904280
2.3915663	-0.0000012126281	-0.0000012126281	-0.0000012126281
2.4096386	-0.0000012409859	-0.0000012409859	-0.0000012409859
2.4277108	-0.0000012737348	-0.0000012737348	-0.0000012737348
2.4457831	-0.0000012971358	-0.0000012971358	-0.0000012971358
2.4638554	-0.0000013253377	-0.0000013253377	-0.0000013253377
2.4819277	-0.0000013604571	-0.0000013604571	-0.0000013604571
2.5000000	-0.0000013876617	-0.0000013876617	-0.0000013876617
2.5180723	-0.0000014130345	-0.0000014130345	-0.0000014130345
2.5361446	-0.0000014483336	-0.0000014483336	-0.0000014483336
2.5542169	-0.0000014830422	-0.0000014830422	-0.0000014830422
2.5722892	-0.0000015090699	-0.0000015090699	-0.0000015090699
2.5903614	-0.0000015380066	-0.0000015380066	-0.0000015380066
2.6084337	-0.0000015759805	-0.0000015759805	-0.0000015759805
2.6265060	-0.0000016125068	-0.0000016125068	-0.0000016125068
2.6445783	-0.0000016407426	-0.0000016407426	-0.0000016407426
2.6626506	-0.0000016696349	-0.0000016696349	-0.0000016696349
2.6807229	-0.0000017076393	-0.0000017076393	-0.0000017076393
2.6987952	-0.0000017485171	-0.0000017485171	-0.0000017485171
2.7168675	-0.0000017832241	-0.0000017832241	-0.0000017832241
2.7349398	-0.0000018119765	-0.0000018119765	-0.0000018119765
2.7530120	-0.0000018449287	-0.0000018449287	-0.0000018449287
2.7710843	-0.0000018862360	-0.0000018862360	-0.0000018862360
2.7891566	-0.0000019297269	-0.0000019297269	-0.0000019297269
2.8072289	-0.0000019680672	-0.0000019680672	-0.0000019680672
2.8253012	-0.0000019999110	-0.0000019999110	-0.0000019999110
2.8433735	-0.0000020324225	-0.0000020324225	-0.0000020324225
2.8614458	-0.0000020724256	-0.0000020724256	-0.0000020724256
2.8795181	-0.0000021184269	-0.0000021184269	-0.0000021184269
2.8975904	-0.0000021643817	-0.0000021643817	-0.0000021643817
2.9156627	-0.0000022051612	-0.0000022051612	-0.0000022051612
2.9337349	-0.0000022401131	-0.0000022401131	-0.0000022401131
2.9518072	-0.0000022745700	-0.0000022745700	-0.0000022745700
2.9698795	-0.0000023148326	-0.0000023148326	-0.0000023148326
2.9879518	-0.0000023619760	-0.0000023619760	-0.0000023619760
3.0060241	-0.0000024123224	-0.0000024123224	-0.0000024123224
3.0240964	-0.0000024612272	-0.0000024612272	-0.0000024612272
3.0421687	-0.0000025053189	-0.0000025053189	-0.0000025053189
3.0602410	-0.0000025442451	-0.0000025442451	-0.0000025442451
3.0783133	-0.0000025816217	-0.0000025816217	-0.0000025816217
3.0963855	-0.0000026226488	-0.0000026226488	-0.0000026226488
3.1144578	-0.0000026700755	-0.0000026700755	-0.0000026700755
3.1325301	-0.0000027228211	-0.0000027228211	-0.0000027228211
3.1506024	-0.0000027777169	-0.0000027777169	-0.0000027777169
3.1686747	-0.0000028314770	-0.0000028314770	-0.0000028314770
3.1867470	-0.0000028815886	-0.0000028815886	-0.0000028815886
3.2048193	-0.0000029270581	-0.0000029270581	-0.0000029270581
3.2228916	-0.0000029692253	-0.0000029692253	-0.0000029692253
3.2409639	-0.0000030114712	-0.0000030114712	-0.0000030114712
3.2590361	-0.0000030574151	-0.0000030574151	-0.0000030574151
3.2771084	-0.0000031089474	-0.0000031089474	-0.0000031089474
3.2951807	-0.0000031656224	-0.0000031656224	-0.0000031656224
3.3132530	-0.0000032254735	-0.0000032254735	-0.0000032254735
3.3313253	-0.0000032861550	-0.0000032861550	-0.0000032861550
3.3493976	-0.0000033455790	-0.0000033455790	-0.0000033455790
3.3674699	-0.0000034021400	-0.0000034021400	-0.0000034021400
3.3855422	-0.0000034549912	-0.0000034549912	-0.0000034549912
3.4036145	-0.0000035044482	-0.0000035044482	-0.0000035044482
3.4216867	-0.0000035521313	-0.0000035521313	-0.0000035521313
3.4397590	-0.0000036005143	-0.0000036005143	-0.0000036005143
3.4578313	-0.0000036520139	-0.0000036520139	-0.0000036520139
3.4759036	-0.0000037081264	-0.0000037081264	-0.0000037081264
3.4939759	-0.0000037690609	-0.0000037690609	-0.0000037690609
3.5120482	-0.0000038339496	-0.0000038339496	-0.0000038339496
3.5301205	-0.0000039013635	-0.0000039013635	-0.0000039013635
3.5481928	-0.0000039697879	-0.0000039697879	-0.0000039697879
3.5662651	-0.0000040378724	-0.0000040378724	-0.0000040378724
3.5843373	-0.0000041044987	-0.0000041044987	-0.0000041044987
3.6024096	-0.0000041688142	-0.0000041688142	-0.0000041688142
3.6204819	-0.0000042303345	-0.0000042303345	-0.0000042303345
3.6385542	-0.0000042890974	-0.0000042890974	-0.0000042890974
3.6566265	-0.0000043457634	-0.0000043457634	-0.0000043457634
3.6746988	-0.0000044015585	-0.0000044015585	-0.0000044015585
3.6927711	-0.0000044580383	-0.0000044580383	-0.0000044580383
3.7108434	-0.0000045167425	-0.0000045167425	-0.0000045167425
3.7289157	-0.0000045788599	-0.0000045788599	-0.0000045788599
3.7469880	-0.0000046450152	-0.0000046450152	-0.0000046450152
3.7650602	-0.0000047152251	-0.0000047152251	-0.0000047152251
3.7831325	-0.0000047890052	-0.0000047890052	-0.0000047890052
3.8012048	-0.0000048655600	-0.0000048655600	-0.0000048655600
3.8192771	-0.0000049439771	-0.0000049439771	-0.0000049439771
3.8373494	-0.0000050233715	-0.0000050233715	-0.0000050233715
3.8554217	-0.0000051029591	-0.0000051029591	-0.0000051029591
3.8734940	0.000049168350	0.000049168350	0.000049168350
3.8915663	0.00075198899	0.00075198899	0.00075198899
3.9096386	0.0015276417	0.0015276417	0.0015276417
3.9277108	0.0023285919	0.0023285919	0.0023285919
3.9457831	0.0031063666	0.0031063666	0.0031063666
3.9638554	0.0038163506	0.0038163506	0.0038163506
3.9819277	0.0044222479	0.0044222479	0.0044222479
4.0000000	0.0048992763	0.0048992763	0.0048992763
4.0180723	0.0052355015	0.0052355015	0.0052355015
4.0361446	0.0054311957	0.0054311957	0.0054311957
4.0542169	0.0054965595	0.0054965595	0.0054965595
4.0722892	0.0054484560	0.0054484560	0.0054484560
4.0903614	0.0053069152	0.0053069152	0.0053069152
4.1084337	0.0050920820	0.0050920820	0.0050920820
4.1265060	0.0048220679	0.0048220679	0.0048220679
4.1445783	0.0045118864	0.0045118864	0.0045118864
4.1626506	0.0041733949	0.0041733949	0.0041733949
4.1807229	0.0038159760	0.0038159760	0.0038159760
4.1987952	0.0034475944	0.0034475944	0.0034475944
4.2168675	0.0030758664	0.0030758664	0.0030758664
4.2349398	0.0027088531	0.0027088531	0.0027088531
4.2530120	0.0023554042	0.0023554042	0.0023554042
4.2710843	0.0020250097	0.0020250097	0.0020250097
4.2891566	0.0017272261	0.0017272261	0.0017272261
4.3072289	0.0014708261	0.0014708261	0.0014708261
4.3253012	0.0012628534	0.0012628534	0.0012628534
4.3433735	0.0011077684	0.0011077684	0.0011077684
4.3614458	0.0010068301	0.0010068301	0.0010068301
4.3795181	0.00095781430	0.00095781430	0.00095781430
4.3975904	0.00095510175	0.00095510175	0.00095510175
4.4156627	0.00099011697	0.00099011697	0.00099011697
4.4337349	0.0010520509	0.0010520509	0.0010520509
4.4518072	0.0011287718	0.0011287718	0.0011287718
4.4698795	0.0012078148	0.0012078148	0.0012078148
4.4879518	0.0012773444	0.0012773444	0.0012773444
4.5060241	0.0013269983	0.0013269983	0.0013269983
4.5240964	0.0013485451	0.0013485451	0.0013485451
4.5421687	0.0013363145	0.0013363145	0.0013363145
4.5602410	0.0012873874	0.0012873874	0.0012873874
4.5783133	0.0012015569	0.0012015569	0.0012015569
4.5963855	0.0010810905	0.0010810905	0.0010810905
4.6144578	0.00093033737	0.00093033737	0.00093033737
4.6325301	0.00075523133	0.00075523133	0.00075523133
4.6506024	0.00056274146	0.00056274146	0.00056274146
4.6686747	0.00036031862	0.00036031862	0.00036031862
4.6867470	0.00015537903	0.00015537903	0.00015537903
4.7048193	-0.000045143164	-0.000045143164	-0.000045143164
4.7228916	-0.00023515280	-0.00023515280	-0.00023515280
4.7409639	-0.00040964864	-0.00040964864	-0.00040964864
4.7590361	-0.00056487413	-0.00056487413	-0.00056487413
4.7771084	-0.00069836963	-0.00069836963	-0.00069836963
4.7951807	-0.00080893748	-0.00080893748	-0.00080893748
4.8132530	-0.00089653551	-0.00089653551	-0.00089653551
4.8313253	-0.00096211665	-0.00096211665	-0.00096211665
4.8493976	-0.0010074330	-0.0010074330	-0.0010074330
4.8674699	-0.0010348217	-0.0010348217	-0.0010348217
4.8855422	-0.0010469884	-0.0010469884	-0.0010469884
4.9036145	-0.0010468013	-0.0010468013	-0.0010468013
4.9216867	-0.0010371069	-0.0010371069	-0.0010371069
4.9397590	-0.0010205733	-0.0010205733	-0.0010205733
4.9578313	-0.00099956659	-0.00099956659	-0.00099956659
4.9759036	-0.00097606263	-0.00097606263	-0.00097606263
4.9939759	-0.00095159190	-0.00095159190	-0.00095159190
5.0120482	-0.00092721706	-0.00092721706	-0.00092721706
5.0301205	-0.00090353862	-0.00090353862	-0.00090353862
5.0481928	-0.00088072435	-0.00088072435	-0.00088072435
5.0662651	-0.00085855765	-0.00085855765	-0.00085855765
5.0843373	-0.00083649940	-0.00083649940	-0.00083649940
5.1024096	-0.00081375859	-0.00081375859	-0.00081375859
5.1204819	-0.00078936680	-0.00078936680	-0.00078936680
5.1385542	-0.00076225273	-0.00076225273	-0.00076225273
5.1566265	-0.00073131322	-0.00073131322	-0.00073131322
5.1746988	-0.00069547797	-0.00069547797	-0.00069547797
5.1927711	-0.00065376608	-0.00065376608	-0.00065376608
5.2108434	-0.00060533301	-0.00060533301	-0.00060533301
5.2289157	-0.00054950718	-0.00054950718	-0.00054950718
5.2469880	-0.00048581609	-0.00048581609	-0.00048581609
5.2650602	-0.00041400225	-0.00041400225	-0.00041400225
5.2831325	-0.00033402951	-0.00033402951	-0.00033402951
5.3012048	-0.00024608075	-0.00024608075	-0.00024608075
5.3192771	-0.00015054808	-0.00015054808	-0.00015054808
5.3373494	-0.000048016762	-0.000048016762	-0.000048016762
5.3554217	0.000060755906	0.000060755906	0.000060755906
5.3734940	0.00017486533	0.00017486533	0.00017486533
5.3915663	0.00029328686	0.00029328686	0.00029328686
5.4096386	0.00041490441	0.00041490441	0.00041490441
5.4277108	0.00053853928	0.00053853928	0.00053853928
5.4457831	0.00066297848	0.00066297848	0.00066297848
5.4638554	0.00078700169	0.00078700169	0.00078700169
5.4819277	0.00090940626	0.00090940626	0.00090940626
5.5000000	0.0010290298	0.0010290298	0.0010290298
5.5180723	0.0011447702	0.0011447702	0.0011447702
5.5361446	0.0012556023	0.0012556023	0.0012556023
5.5542169	0.0013605920	0.0013605920	0.0013605920
5.5722892	0.0014589068	0.0014589068	0.0014589068
5.5903614	0.0015498242	0.0015498242	0.0015498242
5.6084337	0.0016327363	0.0016327363	0.0016327363
5.6265060	0.0017071521	0.0017071521	0.0017071521
5.6445783	0.0017726981	0.0017726981	0.0017726981
5.6626506	0.0018291157	0.0018291157	0.0018291157
5.6807229	0.0018762575	0.0018762575	0.0018762575
5.6987952	0.0019140816	0.0019140816	0.0019140816
5.7168675	0.0019426449	0.0019426449	0.0019426449
5.7349398	0.0019620954	0.0019620954	0.0019620954
5.7530120	0.0019726635	0.0019726635	0.0019726635
5.7710843	0.0019746529	0.0019746529	0.0019746529
5.7891566	0.0019684314	0.0019684314	0.0019684314
5.8072289	0.0019544211	0.0019544211	0.0019544211
5.8253012	0.0019330894	0.0019330894	0.0019330894
5.8433735	0.0019049399	0.0019049399	0.0019049399
5.8614458	0.0018705032	0.0018705032	0.0018705032
5.8795181	0.0018303289	0.0018303289	0.0018303289
5.8975904	0.0017849777	0.0017849777	0.0017849777
5.9156627	0.0017350143	0.0017350143	0.0017350143
5.9337349	0.0016810010	0.0016810010	0.0016810010
5.9518072	0.0016234914	0.0016234914	0.0016234914
5.9698795	0.0015630256	0.0015630256	0.0015630256
5.9879518	0.0015001259	0.0015001259	0.0015001259
6.0060241	0.0014352922	0.0014352922	0.0014352922
6.0240964	0.0013689998	0.0013689998	0.0013689998
6.0421687	0.0013016961	0.0013016961	0.0013016961
6.0602410	0.0012337991	0.0012337991	0.0012337991
6.0783133	0.0011656954	0.0011656954	0.0011656954
6.0963855	0.0010977401	0.0010977401	0.0010977401
6.1144578	0.0010302557	0.0010302557	0.0010302557
6.1325301	0.00096353200	0.00096353200	0.00096353200
6.1506024	0.00089782691	0.00089782691	0.00089782691
6.1686747	0.00083336662	0.00083336662	0.00083336662
6.1867470	0.00077034670	0.00077034670	0.00077034670
6.2048193	0.00070893317	0.00070893317	0.00070893317
6.2228916	0.00064926383	0.00064926383	0.00064926383
6.2409639	0.00059144976	0.00059144976	0.00059144976
6.2590361	0.00053557691	0.00053557691	0.00053557691
6.2771084	0.00048170778	0.00048170778	0.00048170778
6.2951807	0.00042988320	0.00042988320	0.00042988320
6.3132530	0.00038012408	0.00038012408	0.00038012408
6.3313253	0.00033243325	0.00033243325	0.00033243325
6.3493976	0.00028679719	0.00028679719	0.00028679719
6.3674699	0.00024318783	0.00024318783	0.00024318783
6.3855422	0.00020156425	0.00020156425	0.00020156425
6.4036145	0.00016187435	0.00016187435	0.00016187435
6.4216867	0.00012405640	0.00012405640	0.00012405640
6.4397590	0.000088040601	0.000088040601	0.000088040601
6.4578313	0.000053750496	0.000053750496	0.000053750496
6.4759036	0.000021104313	0.000021104313	0.000021104313
6.4939759	-0.0000099837774	-0.0000099837774	-0.0000099837774
6.5120482	-0.000039602503	-0.000039602503	-0.000039602503
6.5301205	-0.000067842422	-0.000067842422	-0.000067842422
6.5481928	-0.000094794955	-0.000094794955	-0.000094794955
6.5662651	-0.00012055150	-0.00012055150	-0.00012055150
6.5843373	-0.00014520263	-0.00014520263	-0.00014520263
6.6024096	-0.00016883742	-0.00016883742	-0.00016883742
6.6204819	-0.00019154281	-0.00019154281	-0.00019154281
6.6385542	-0.00021340305	-0.00021340305	-0.00021340305
6.6566265	-0.00023449926	-0.00023449926	-0.00023449926
6.6746988	-0.00025490906	-0.00025490906	-0.00025490906
6.6927711	-0.00027470619	-0.00027470619	-0.00027470619
6.7108434	-0.00029396031	-0.00029396031	-0.00029396031
6.7289157	-0.00031273676	-0.00031273676	-0.00031273676
6.7469880	-0.00033109646	-0.00033109646	-0.00033109646
6.7650602	-0.00034909575	-0.00034909575	-0.00034909575
6.7831325	-0.00036678639	-0.00036678639	-0.00036678639
6.8012048	-0.00038421554	-0.00038421554	-0.00038421554
6.8192771	-0.00040142575	-0.00040142575	-0.00040142575
6.8373494	-0.00041845509	-0.00041845509	-0.00041845509
6.8554217	-0.00043533715	-0.00043533715	-0.00043533715
6.8734940	-0.00045210122	-0.00045210122	-0.00045210122
6.8915663	-0.00046877239	-0.00046877239	-0.00046877239
6.9096386	-0.00048537170	-0.00048537170	-0.00048537170
6.9277108	-0.00050191632	-0.00050191632	-0.00050191632
6.9457831	-0.00051841974	-0.00051841974	-0.00051841974
6.9638554	-0.00053489190	-0.00053489190	-0.00053489190
6.9819277	-0.00055133948	-0.00055133948	-0.00055133948
7.0000000	-0.00056776600	-0.00056776600	-0.00056776600
7.0180723	-0.00058417210	-0.00058417210	-0.00058417210
7.0361446	-0.00060055571	-0.00060055571	-0.00060055571
7.0542169	-0.00061691228	-0.00061691228	-0.00061691228
7.0722892	-0.00063323495	-0.00063323495	-0.00063323495
7.0903614	-0.00064951478	-0.00064951478	-0.00064951478
7.1084337	-0.00066574095	-0.00066574095	-0.00066574095
7.1265060	-0.00068190095	-0.00068190095	-0.00068190095
7.1445783	-0.00069798074	-0.00069798074	-0.00069798074
7.1626506	-0.00071396498	-0.00071396498	-0.00071396498
7.1807229	-0.00072983716	-0.00072983716	-0.00072983716
7.1987952	-0.00074557983	-0.00074557983	-0.00074557983
7.2168675	-0.00076117467	-0.00076117467	-0.00076117467
7.2349398	-0.00077660273	-0.00077660273	-0.00077660273
7.2530120	-0.00079184454	-0.00079184454	-0.00079184454
7.2710843	-0.00080688022	-0.00080688022	-0.00080688022
7.2891566	-0.00082168967	-0.00082168967	-0.00082168967
7.3072289	-0.00083625262	-0.00083625262	-0.00083625262
7.3253012	-0.00085054880	-0.00085054880	-0.00085054880
7.3433735	-0.00086455803	-0.00086455803	-0.00086455803
7.3614458	-0.00087826028	-0.00087826028	-0.00087826028
7.3795181	-0.00089163582	-0.00089163582	-0.00089163582
7.3975904	-0.00090466524	-0.00090466524	-0.00090466524
7.4156627	-0.00091732957	-0.00091732957	-0.00091732957
7.4337349	-0.00092961033	-0.00092961033	-0.00092961033
7.4518072	-0.00094148959	-0.00094148959	-0.00094148959
7.4698795	-0.00095295000	-0.00095295000	-0.00095295000
7.4879518	-0.00096397488	-0.00096397488	-0.00096397488
7.5060241	-0.00097454825	-0.00097454825	-0.00097454825
7.5240964	-0.00098465483	-0.00098465483	-0.00098465483
7.5421687	-0.00099428013	-0.00099428013	-0.00099428013
7.5602410	-0.0010034104	-0.0010034104	-0.0010034104
7.5783133	-0.0010120327	-0.0010120327	-0.0010120327
