% signal t-range (microseconds):	0.0000000	2.5760000
% breakpoint	1	3.3338509
% svcs	1	0	0	0
% svcs	2	0	64	64
0.0000000	0.021157496	0.018371935
0.0080000000	0.021344792	0.018320476
0.016000000	0.021457437	0.018217113
0.024000000	0.021530532	0.018061895
0.032000000	0.021588787	0.017855371
0.040000000	0.021607324	0.017598431
0.048000000	0.021563788	0.017292250
0.056000000	0.021459180	0.016938209
0.064000000	0.021283541	0.016537904
0.072000000	0.021026878	0.016093114
0.080000000	0.020687129	0.015605782
0.088000000	0.020232227	0.015078045
0.096000000	0.019652090	0.014512191
0.10400000	0.018956202	0.013910645
0.11200000	0.018146268	0.013275952
0.12000000	0.017261053	0.012610748
0.12800000	0.016323658	0.011917751
0.13600000	0.015325150	0.011199753
0.14400000	0.014268164	0.010459585
0.15200000	0.013141067	0.0097001091
0.16000000	0.011937083	0.0089241964
0.16800000	0.010682597	0.0081347027
0.17600000	0.0094034333	0.0073344576
0.18400000	0.0081037572	0.0065262541
0.19200000	0.0067962539	0.0057128162
0.20000000	0.0054998275	0.0048968045
0.20800000	0.0042258323	0.0040807896
0.21600000	0.0030041284	0.0032672312
0.22400000	0.0018507313	0.0024584905
0.23200000	0.00076352372	0.0016567950
0.24000000	-0.00025619349	0.00086424572
0.24800000	-0.0012235721	0.000082814954
0.25600000	-0.0021470988	-0.00068568624
0.26400000	-0.0030208421	-0.0014395826
0.27200000	-0.0038440938	-0.0021773555
0.28000000	-0.0046106150	-0.0028976417
0.28800000	-0.0053159648	-0.0035992220
0.29600000	-0.0059704090	-0.0042810377
0.30400000	-0.0065843520	-0.0049421767
0.31200000	-0.0071574981	-0.0055818716
0.32000000	-0.0076939130	-0.0061995018
0.32800000	-0.0082016675	-0.0067945746
0.33600000	-0.0086851206	-0.0073667289
0.34400000	-0.0091573345	-0.0079157265
0.35200000	-0.0096254010	-0.0084414392
0.36000000	-0.010086935	-0.0089438467
0.36800000	-0.010541276	-0.0094230239
0.37600000	-0.010982075	-0.0098791287
0.38400000	-0.011404964	-0.010312393
0.39200000	-0.011812275	-0.010723121
0.40000000	-0.012204667	-0.011111673
0.40800000	-0.012582262	-0.011478451
0.41600000	-0.012946128	-0.011823900
0.42400000	-0.013292970	-0.012148491
0.43200000	-0.013618252	-0.012452716
0.44000000	-0.013925127	-0.012737079
0.44800000	-0.014214324	-0.013002091
0.45600000	-0.014480054	-0.013248262
0.46400000	-0.014719155	-0.013476088
0.47200000	-0.014927202	-0.013686062
0.48000000	-0.015100433	-0.013878650
0.48800000	-0.015241587	-0.014054296
0.49600000	-0.015354226	-0.014213437
0.50400000	-0.015436278	-0.014356471
0.51200000	-0.015488036	-0.014483759
0.52000000	-0.015513751	-0.014595650
0.52800000	-0.015515801	-0.014692462
0.53600000	-0.015499593	-0.014774490
0.54400000	-0.015469047	-0.014841991
0.55200000	-0.015422790	-0.014895199
0.56000000	-0.015359913	-0.014934346
0.56800000	-0.015280925	-0.014959635
0.57600000	-0.015185426	-0.014971247
0.58400000	-0.015074046	-0.014969357
0.59200000	-0.014947865	-0.014954133
0.60000000	-0.014804664	-0.014925751
0.60800000	-0.014644645	-0.014884376
0.61600000	-0.014469137	-0.014830173
0.62400000	-0.014278428	-0.014763322
0.63200000	-0.014078042	-0.014684014
0.64000000	-0.013871184	-0.014592464
0.64800000	-0.013656791	-0.014488902
0.65600000	-0.013435395	-0.014373576
0.66400000	-0.013205069	-0.014246752
0.67200000	-0.012964906	-0.014108730
0.68000000	-0.012718581	-0.013959842
0.68800000	-0.012469519	-0.013800457
0.69600000	-0.012219084	-0.013630968
0.70400000	-0.011969311	-0.013451785
0.71200000	-0.011722459	-0.013263350
0.72000000	-0.011480117	-0.013066147
0.72800000	-0.011245565	-0.012860694
0.73600000	-0.011020349	-0.012647540
0.74400000	-0.010804954	-0.012427240
0.75200000	-0.010599926	-0.012200366
0.76000000	-0.010402941	-0.011967517
0.76800000	-0.010213404	-0.011729318
0.77600000	-0.010031287	-0.011486417
0.78400000	-0.0098556048	-0.011239466
0.79200000	-0.0096894867	-0.010989102
0.80000000	-0.0095338039	-0.010735972
0.80800000	-0.0093862100	-0.010480716
0.81600000	-0.0092458429	-0.010223985
0.82400000	-0.0091085540	-0.0099664269
0.83200000	-0.0089709959	-0.0097086617
0.84000000	-0.0088353050	-0.0094512908
0.84800000	-0.0087024854	-0.0091948872
0.85600000	-0.0085711581	-0.0089399969
0.86400000	-0.0084423581	-0.0086871502
0.87200000	-0.0083138101	-0.0084368548
0.88000000	-0.0081819306	-0.0081895840
0.88800000	-0.0080529663	-0.0079457659
0.89600000	-0.0079286997	-0.0077057854
0.90400000	-0.0078046647	-0.0074699872
0.91200000	-0.0076796817	-0.0072386774
0.92000000	-0.0075458293	-0.0070121299
0.92800000	-0.0073984518	-0.0067905853
0.93600000	-0.0072426466	-0.0065742427
0.94400000	-0.0070819255	-0.0063632483
0.95200000	-0.0069190244	-0.0061577020
0.96000000	-0.0067579332	-0.0059576612
0.96800000	-0.0065978959	-0.0057631516
0.97600000	-0.0064378517	-0.0055741800
0.98400000	-0.0062841446	-0.0053907156
0.99200000	-0.0061376476	-0.0052126917
1.0000000	-0.0059983068	-0.0050400106
1.0080000	-0.0058689464	-0.0048725335
1.0160000	-0.0057384096	-0.0047101002
1.0240000	-0.0056011163	-0.0045525310
1.0320000	-0.0054637529	-0.0043996350
1.0400000	-0.0053285350	-0.0042512203
1.0480000	-0.0052021786	-0.0041070688
1.0560000	-0.0050899423	-0.0039669446
1.0640000	-0.0049845786	-0.0038306014
1.0720000	-0.0048786227	-0.0036977813
1.0800000	-0.0047739357	-0.0035682347
1.0880000	-0.0046685152	-0.0034417125
1.0960000	-0.0045566777	-0.0033179666
1.1040000	-0.0044359659	-0.0031967655
1.1120000	-0.0042963536	-0.0030778776
1.1200000	-0.0041328470	-0.0029610649
1.1280000	-0.0039488554	-0.0028460993
1.1360000	-0.0037462302	-0.0027327589
1.1440000	-0.0035312969	-0.0026208384
1.1520000	-0.0033089315	-0.0025101550
1.1600000	-0.0030781144	-0.0024005312
1.1680000	-0.0028390854	-0.0022918093
1.1760000	-0.0025933773	-0.0021838426
1.1840000	-0.0023412199	-0.0020764920
1.1920000	-0.0020859918	-0.0019696271
1.2000000	-0.0018324767	-0.0018631320
1.2080000	-0.0015779984	-0.0017569002
1.2160000	-0.0013220734	-0.0016508373
1.2240000	-0.0010712162	-0.0015448804
1.2320000	-0.00082938985	-0.0014389702
1.2400000	-0.00060079914	-0.0013330562
1.2480000	-0.00038969652	-0.0012270915
1.2560000	-0.00019408579	-0.0011210390
1.2640000	-0.000010747833	-0.0010148675
1.2720000	0.00015619817	-0.00090855231
1.2800000	0.00030565760	-0.00080207345
1.2880000	0.00044213992	-0.00069542478
1.2960000	0.00056770443	-0.00058860498
1.3040000	0.00068785235	-0.00048163143
1.3120000	0.00080662138	-0.00037451475
1.3200000	0.00092104247	-0.00026726649
1.3280000	0.0010285779	-0.00015989714
1.3360000	0.0011298822	-0.000052406651
1.3440000	0.0012238053	0.000055180785
1.3520000	0.0013097099	0.00016284605
1.3600000	0.0013880890	0.00027055446
1.3680000	0.0014540616	0.00037827801
1.3760000	0.0015062501	0.00048598087
1.3840000	0.0015465980	0.00059362522
1.3920000	0.0015752475	0.00070117285
1.4000000	0.0015985975	0.00080858822
1.4080000	0.0016209314	0.00091583379
1.4160000	0.0016393410	0.0010228746
1.4240000	0.0016528462	0.0011296647
1.4320000	0.0016609583	0.0012361514
1.4400000	0.0016621900	0.0013422612
1.4480000	0.0016601418	0.0014479286
1.4560000	0.0016596857	0.0015530836
1.4640000	0.0016571782	0.0016576649
1.4720000	0.0016519923	0.0017616036
1.4800000	0.0016501356	0.0018648176
1.4880000	0.0016546438	0.0019672206
1.4960000	0.0016713609	0.0020687277
1.5040000	0.0017048537	0.0021692494
1.5120000	0.0017517320	0.0022686946
1.5200000	0.0018085136	0.0023669474
1.5280000	0.0018766864	0.0024638941
1.5360000	0.0019550345	0.0025594184
1.5440000	0.0020410954	0.0026534042
1.5520000	0.0021341442	0.0027457445
1.5600000	0.0022271895	0.0028363243
1.5680000	0.0023167610	0.0029250282
1.5760000	0.0024048914	0.0030117333
1.5840000	0.0024914704	0.0030963071
1.5920000	0.0025809247	0.0031786238
1.6000000	0.0026768394	0.0032585630
1.6080000	0.0027747313	0.0033360019
1.6160000	0.0028717035	0.0034108188
1.6240000	0.0029692248	0.0034828888
1.6320000	0.0030648768	0.0035520898
1.6400000	0.0031605984	0.0036183191
1.6480000	0.0032606521	0.0036814772
1.6560000	0.0033542510	0.0037414707
1.6640000	0.0034373011	0.0037982080
1.6720000	0.0035162390	0.0038515992
1.6800000	0.0035925703	0.0039015569
1.6880000	0.0036768242	0.0039479982
1.6960000	0.0037753645	0.0039908531
1.7040000	0.0038800918	0.0040300670
1.7120000	0.0039846885	0.0040656002
1.7200000	0.0040860961	0.0040974130
1.7280000	0.0041789763	0.0041254694
1.7360000	0.0042624109	0.0041497508
1.7440000	0.0043366355	0.0041702490
1.7520000	0.0043919152	0.0041869745
1.7600000	0.0044259812	0.0041999388
1.7680000	0.0044394440	0.0042091542
1.7760000	0.0044295104	0.0042146384
1.7840000	0.0044103968	0.0042164175
1.7920000	0.0043893830	0.0042145393
1.8000000	0.0043592263	0.0042090602
1.8080000	0.0043181154	0.0042000498
1.8160000	0.0042580421	0.0041875915
1.8240000	0.0041732027	0.0041717650
1.8320000	0.0040731162	0.0041526579
1.8400000	0.0039672251	0.0041303630
1.8480000	0.0038547962	0.0041049790
1.8560000	0.0037393805	0.0040766186
1.8640000	0.0036276663	0.0040453906
1.8720000	0.0035228191	0.0040114153
1.8800000	0.0034372013	0.0039748197
1.8880000	0.0033768145	0.0039357233
1.8960000	0.0033386505	0.0038942561
1.9040000	0.0033217032	0.0038505599
1.9120000	0.0033177055	0.0038047843
1.9200000	0.0033210698	0.0037570823
1.9280000	0.0033340953	0.0037076007
1.9360000	0.0033569311	0.0036564852
1.9440000	0.0033900174	0.0036038808
1.9520000	0.0034343325	0.0035499286
1.9600000	0.0034851564	0.0034947769
1.9680000	0.0035366254	0.0034385759
1.9760000	0.0035909016	0.0033814760
1.9840000	0.0036476631	0.0033236333
1.9920000	0.0037001338	0.0032652010
2.0000000	0.0037442530	0.0032063233
2.0080000	0.0037744831	0.0031471464
2.0160000	0.0037863451	0.0030878158
2.0240000	0.0037817979	0.0030284753
2.0320000	0.0037637327	0.0029692752
2.0400000	0.0037302350	0.0029103583
2.0480000	0.0036811087	0.0028518544
2.0560000	0.0036204278	0.0027938873
2.0640000	0.0035506334	0.0027365763
2.0720000	0.0034752725	0.0026800444
2.0800000	0.0033976099	0.0026244139
2.0880000	0.0033164586	0.0025698073
2.0960000	0.0032303748	0.0025163414
2.1040000	0.0031418676	0.0024641209
2.1120000	0.0030515566	0.0024132492
2.1200000	0.0029583155	0.0023638233
2.1280000	0.0028624092	0.0023159370
2.1360000	0.0027603941	0.0022696833
2.1440000	0.0026507858	0.0022251369
2.1520000	0.0025363313	0.0021823648
2.1600000	0.0024186645	0.0021414429
2.1680000	0.0023007009	0.0021024357
2.1760000	0.0021854897	0.0020653923
2.1840000	0.0020721292	0.0020303608
2.1920000	0.0019599844	0.0019973828
2.2000000	0.0018522311	0.0019664910
2.2080000	0.0017494696	0.0019377270
2.2160000	0.0016524569	0.0019111300
2.2240000	0.0015639845	0.0018867199
2.2320000	0.0014789288	0.0018645082
2.2400000	0.0013944760	0.0018444929
2.2480000	0.0013166629	0.0018266579
2.2560000	0.0012487942	0.0018109995
2.2640000	0.0011931787	0.0017975068
2.2720000	0.0011536053	0.0017861565
2.2800000	0.0011266448	0.0017769253
2.2880000	0.0011073079	0.0017697776
2.2960000	0.0011023811	0.0017646705
2.3040000	0.0011133213	0.0017615539
2.3120000	0.0011341113	0.0017603895
2.3200000	0.0011626246	0.0017611295
2.3280000	0.0011887505	0.0017637066
2.3360000	0.0012063751	0.0017680589
2.3440000	0.0012207718	0.0017741211
2.3520000	0.0012354330	0.0017818298
2.3600000	0.0012532761	0.0017911066
2.3680000	0.0012783195	0.0018018649
2.3760000	0.0013093288	0.0018140156
2.3840000	0.0013449177	0.0018274639
2.3920000	0.0013910499	0.0018421122
2.4000000	0.0014478170	0.0018578800
2.4080000	0.0015152777	0.0018746865
2.4160000	0.0015961291	0.0018924421
2.4240000	0.0016776059	0.0019110640
2.4320000	0.0017537975	0.0019304493
2.4400000	0.0018302725	0.0019504953
2.4480000	0.0019076748	0.0019711126
2.4560000	0.0019951343	0.0019922092
2.4640000	0.0020979557	0.0020136945
2.4720000	0.0022071534	0.0020354881
2.4800000	0.0023151261	0.0020574884
2.4880000	0.0024185769	0.0020796008
2.4960000	0.0025120815	0.0021017398
2.5040000	0.0025926954	0.0021238276
2.5120000	0.0026589069	0.0021457886
2.5200000	0.0027012768	0.0021675427
2.5280000	0.0027169108	0.0021890129
2.5360000	0.0027057152	0.0022101306
2.5440000	0.0026655265	0.0022308284
2.5520000	0.0026079330	0.0022510552
2.5600000	0.0025381507	0.0022707572
2.5680000	0.0024521705	0.0022898800
2.5760000	0.0023504041	0.0023083700
