% signal t-range (microseconds):	0.0032000000	2.1712000
% breakpoint	1	3.5405904
% svcs	1	0	0	0
% svcs	2	0	10	10
0.0032000000	0.048108886	0.042442426
0.011200000	0.048341696	0.042352883
0.019200000	0.048435700	0.042171667
0.027200000	0.048382354	0.041897742
0.035200000	0.048200294	0.041531493
0.043200000	0.047898537	0.041073930
0.051200000	0.047463855	0.040526445
0.059200000	0.046892381	0.039890672
0.067200000	0.046172357	0.039168386
0.075200000	0.045295206	0.038361661
0.083200000	0.044277463	0.037472869
0.091200000	0.043136388	0.036504621
0.099200000	0.041871176	0.035459752
0.10720000	0.040490184	0.034341229
0.11520000	0.039007934	0.033152244
0.12320000	0.037432749	0.031896189
0.13120000	0.035792488	0.030576612
0.13920000	0.034103744	0.029197218
0.14720000	0.032364444	0.027761788
0.15520000	0.030578546	0.026274242
0.16320000	0.028737302	0.024738615
0.17120000	0.026834527	0.023159008
0.17920000	0.024886508	0.021539596
0.18720000	0.022904817	0.019884557
0.19520000	0.020889699	0.018198122
0.20320000	0.018852459	0.016484541
0.21120000	0.016790440	0.014748043
0.21920000	0.014695416	0.012992862
0.22720000	0.012602322	0.011223142
0.23520000	0.010525167	0.0094429974
0.24320000	0.0084523075	0.0076564929
0.25120000	0.0063860495	0.0058675897
0.25920000	0.0042947532	0.0040801627
0.26720000	0.0021637885	0.0022979696
0.27520000	0.000020660882	0.00052463764
0.28320000	-0.0021159093	-0.0012363212
0.29120000	-0.0042225468	-0.0029815199
0.29920000	-0.0062748471	-0.0047077406
0.30720000	-0.0082755783	-0.0064119461
0.31520000	-0.010225793	-0.0080912340
0.32320000	-0.012100992	-0.0097428782
0.33120000	-0.013899597	-0.011364336
0.33920000	-0.015612199	-0.012953218
0.34720000	-0.017219987	-0.014507360
0.35520000	-0.018771553	-0.016024770
0.36320000	-0.020284528	-0.017503600
0.37120000	-0.021732958	-0.018942238
0.37920000	-0.023112961	-0.020339229
0.38720000	-0.024374693	-0.021693288
0.39520000	-0.025490710	-0.023003346
0.40320000	-0.026498866	-0.024268497
0.41120000	-0.027426549	-0.025487977
0.41920000	-0.028296755	-0.026661164
0.42720000	-0.029138925	-0.027787663
0.43520000	-0.029952401	-0.028867247
0.44320000	-0.030735078	-0.029899746
0.45120000	-0.031527619	-0.030885141
0.45920000	-0.032336310	-0.031823567
0.46720000	-0.033165991	-0.032715316
0.47520000	-0.034036738	-0.033560780
0.48320000	-0.034879322	-0.034360387
0.49120000	-0.035663410	-0.035114672
0.49920000	-0.036425673	-0.035824289
0.50720000	-0.037174031	-0.036489986
0.51520000	-0.037963403	-0.037112578
0.52320000	-0.038827866	-0.037692887
0.53120000	-0.039718385	-0.038231749
0.53920000	-0.040593118	-0.038730084
0.54720000	-0.041439016	-0.039188905
0.55520000	-0.042228283	-0.039609238
0.56320000	-0.042944857	-0.039992055
0.57120000	-0.043582482	-0.040338302
0.57920000	-0.044084549	-0.040648953
0.58720000	-0.044433273	-0.040925057
0.59520000	-0.044633409	-0.041167673
0.60320000	-0.044675512	-0.041377755
0.61120000	-0.044627799	-0.041556194
0.61920000	-0.044524816	-0.041703860
0.62720000	-0.044340246	-0.041821666
0.63520000	-0.044072476	-0.041910558
0.64320000	-0.043681965	-0.041971373
0.65120000	-0.043145110	-0.042004860
0.65920000	-0.042509612	-0.042011715
0.66720000	-0.041818299	-0.041992609
0.67520000	-0.041083515	-0.041948259
0.68320000	-0.040331468	-0.041879335
0.69120000	-0.039584741	-0.041786430
0.69920000	-0.038855475	-0.041670065
0.70720000	-0.038197143	-0.041530692
0.71520000	-0.037631072	-0.041368775
0.72320000	-0.037154710	-0.041184766
0.73120000	-0.036775803	-0.040979101
0.73920000	-0.036444155	-0.040752175
0.74720000	-0.036134925	-0.040504330
0.75520000	-0.035867691	-0.040235875
0.76320000	-0.035643482	-0.039947078
0.77120000	-0.035493190	-0.039638202
0.77920000	-0.035434995	-0.039309543
0.78720000	-0.035433118	-0.038961411
0.79520000	-0.035456265	-0.038594084
0.80320000	-0.035493937	-0.038207801
0.81120000	-0.035525390	-0.037802794
0.81920000	-0.035536114	-0.037379286
0.82720000	-0.035518846	-0.036937515
0.83520000	-0.035432753	-0.036477791
0.84320000	-0.035262582	-0.036000449
0.85120000	-0.035010220	-0.035505818
0.85920000	-0.034668132	-0.034994206
0.86720000	-0.034277924	-0.034465906
0.87520000	-0.033860712	-0.033921256
0.88320000	-0.033397147	-0.033360640
0.89120000	-0.032883641	-0.032784487
0.89920000	-0.032296193	-0.032193271
0.90720000	-0.031618635	-0.031587467
0.91520000	-0.030879746	-0.030967591
0.92320000	-0.030106843	-0.030334159
0.93120000	-0.029301640	-0.029687665
0.93920000	-0.028477248	-0.029028655
0.94720000	-0.027650781	-0.028357725
0.95520000	-0.026830440	-0.027675558
0.96320000	-0.026052548	-0.026982866
0.97120000	-0.025333560	-0.026280316
0.97920000	-0.024667197	-0.025568584
0.98720000	-0.024054200	-0.024848383
0.99520000	-0.023466624	-0.024120452
1.0032000	-0.022887446	-0.023385540
1.0112000	-0.022328206	-0.022644405
1.0192000	-0.021791576	-0.021897832
1.0272000	-0.021284891	-0.021146645
1.0352000	-0.020815514	-0.020391700
1.0432000	-0.020366573	-0.019633815
1.0512000	-0.019918528	-0.018873756
1.0592000	-0.019478592	-0.018112302
1.0672000	-0.019044437	-0.017350239
1.0752000	-0.018596393	-0.016588393
1.0832000	-0.018124005	-0.015827592
1.0912000	-0.017604921	-0.015068600
1.0992000	-0.017024397	-0.014312182
1.1072000	-0.016390967	-0.013559123
1.1152000	-0.015712864	-0.012810186
1.1232000	-0.014992884	-0.012066089
1.1312000	-0.014236671	-0.011327509
1.1392000	-0.013450328	-0.010595065
1.1472000	-0.012637842	-0.0098693739
1.1552000	-0.011810799	-0.0091510961
1.1632000	-0.010976338	-0.0084408822
1.1712000	-0.010134979	-0.0077393238
1.1792000	-0.0092899836	-0.0070469283
1.1872000	-0.0084383976	-0.0063641871
1.1952000	-0.0075779444	-0.0056915754
1.2032000	-0.0067173528	-0.0050295452
1.2112000	-0.0058632111	-0.0043784881
1.2192000	-0.0050149304	-0.0037387437
1.2272000	-0.0041772317	-0.0031106413
1.2352000	-0.0033499627	-0.0024944891
1.2432000	-0.0025288892	-0.0018906329
1.2512000	-0.0017301294	-0.0012993445
1.2592000	-0.00096154049	-0.00072085191
1.2672000	-0.00021353040	-0.00015529801
1.2752000	0.00051692758	0.00039720275
1.2832000	0.0012401913	0.00093655996
1.2912000	0.0019641556	0.0014626714
1.2992000	0.0026780734	0.0019754575
1.3072000	0.0033713274	0.0024748622
1.3152000	0.0040461009	0.0029608957
1.3232000	0.0046988957	0.0034335681
1.3312000	0.0053226322	0.0038928947
1.3392000	0.0059147413	0.0043389187
1.3472000	0.0064599456	0.0047717133
1.3552000	0.0069512788	0.0051914237
1.3632000	0.0073939477	0.0055981735
1.3712000	0.0077898754	0.0059921426
1.3792000	0.0081507547	0.0063735080
1.3872000	0.0084853850	0.0067424287
1.3952000	0.0087897123	0.0070990595
1.4032000	0.0090626396	0.0074435580
1.4112000	0.0093063264	0.0077761492
1.4192000	0.0095197629	0.0080970779
1.4272000	0.0097094019	0.0084066200
1.4352000	0.0098848506	0.0087050105
1.4432000	0.010038160	0.0089924810
1.4512000	0.010167391	0.0092692921
1.4592000	0.010285867	0.0095357458
1.4672000	0.010400759	0.0097921713
1.4752000	0.010523156	0.010038862
1.4832000	0.010663124	0.010276058
1.4912000	0.010814059	0.010504022
1.4992000	0.010968508	0.010723033
1.5072000	0.011133717	0.010933414
1.5152000	0.011309294	0.011135472
1.5232000	0.011489310	0.011329513
1.5312000	0.011672905	0.011515871
1.5392000	0.011843259	0.011694880
1.5472000	0.011992148	0.011866851
1.5552000	0.012127245	0.012032082
1.5632000	0.012251046	0.012190865
1.5712000	0.012374624	0.012343516
1.5792000	0.012508127	0.012490366
1.5872000	0.012642890	0.012631722
1.5952000	0.012773156	0.012767860
1.6032000	0.012906291	0.012899042
1.6112000	0.013038826	0.013025561
1.6192000	0.013175024	0.013147750
1.6272000	0.013325615	0.013265938
1.6352000	0.013463620	0.013380454
1.6432000	0.013578071	0.013491578
1.6512000	0.013686797	0.013599567
1.6592000	0.013795331	0.013704696
1.6672000	0.013927751	0.013807228
1.6752000	0.014100122	0.013907413
1.6832000	0.014293191	0.014005489
1.6912000	0.014490196	0.014101698
1.6992000	0.014688929	0.014196308
1.7072000	0.014879593	0.014289575
1.7152000	0.015055486	0.014381718
1.7232000	0.015214953	0.014472929
1.7312000	0.015332911	0.014563429
1.7392000	0.015401020	0.014653454
1.7472000	0.015424058	0.014743208
1.7552000	0.015399791	0.014832904
1.7632000	0.015357022	0.014922692
1.7712000	0.015312296	0.015012681
1.7792000	0.015253184	0.015102977
1.7872000	0.015176959	0.015193712
1.7952000	0.015072951	0.015285045
1.8032000	0.014932306	0.015377124
1.8112000	0.014773101	0.015470048
1.8192000	0.014614906	0.015563907
1.8272000	0.014453144	0.015658790
1.8352000	0.014292272	0.015754783
1.8432000	0.014149627	0.015851955
1.8512000	0.014034238	0.015950346
1.8592000	0.013969332	0.016049966
1.8672000	0.013968466	0.016150826
1.8752000	0.014024389	0.016252963
1.8832000	0.014131409	0.016356397
1.8912000	0.014281128	0.016461093
1.8992000	0.014465883	0.016567010
1.9072000	0.014683330	0.016674106
1.9152000	0.014930530	0.016782354
1.9232000	0.015201726	0.016891729
1.9312000	0.015493478	0.017002203
1.9392000	0.015800981	0.017113749
1.9472000	0.016117642	0.017226301
1.9552000	0.016445266	0.017339765
1.9632000	0.016783422	0.017454028
1.9712000	0.017123049	0.017568976
1.9792000	0.017458028	0.017684522
1.9872000	0.017783136	0.017800596
1.9952000	0.018092251	0.017917100
2.0032000	0.018386438	0.018033910
2.0112000	0.018668560	0.018150881
2.0192000	0.018930844	0.018267908
2.0272000	0.019170175	0.018384889
2.0352000	0.019391346	0.018501715
2.0432000	0.019595750	0.018618275
2.0512000	0.019790470	0.018734429
2.0592000	0.019979999	0.018850063
2.0672000	0.020159031	0.018965092
2.0752000	0.020323135	0.019079413
2.0832000	0.020470951	0.019192907
2.0912000	0.020599605	0.019305424
2.0992000	0.020707686	0.019416794
2.1072000	0.020794786	0.019526880
2.1152000	0.020855142	0.019635592
2.1232000	0.020887378	0.019742831
2.1312000	0.020892121	0.019848484
2.1392000	0.020868630	0.019952481
2.1472000	0.020825224	0.020054725
2.1552000	0.020765953	0.020155103
2.1632000	0.020688845	0.020253537
2.1712000	0.020594815	0.020349920
