% signal t-range:	-0.0064000000	2.8256000
% breakpoint	1	3.8728814
% svcs	1	0	0	0
% svcs	2	0	43	43
1.0000000	3.8879084e-8	3.8879084e-8	3.8879084e-8
1.0508475	-1.9118662e-7	-1.9118662e-7	-1.9118662e-7
1.1016949	-2.7643782e-7	-2.7643782e-7	-2.7643782e-7
1.1525424	-1.5980609e-7	-1.5980609e-7	-1.5980609e-7
1.2033898	9.3285378e-8	9.3285378e-8	9.3285378e-8
1.2542373	1.5920598e-7	1.5920598e-7	1.5920598e-7
1.3050847	2.5106063e-7	2.5106063e-7	2.5106063e-7
1.3559322	4.4023248e-7	4.4023248e-7	4.4023248e-7
1.4067797	6.0753813e-7	6.0753813e-7	6.0753813e-7
1.4576271	6.7472687e-7	6.7472687e-7	6.7472687e-7
1.5084746	7.3603612e-7	7.3603612e-7	7.3603612e-7
1.5593220	8.1871845e-7	8.1871845e-7	8.1871845e-7
1.6101695	8.9043582e-7	8.9043582e-7	8.9043582e-7
1.6610169	9.7504833e-7	9.7504833e-7	9.7504833e-7
1.7118644	0.0000010817894	0.0000010817894	0.0000010817894
1.7627119	0.0000011610724	0.0000011610724	0.0000011610724
1.8135593	0.0000012629109	0.0000012629109	0.0000012629109
1.8644068	0.0000013704868	0.0000013704868	0.0000013704868
1.9152542	0.0000015107080	0.0000015107080	0.0000015107080
1.9661017	0.0000016044543	0.0000016044543	0.0000016044543
2.0169492	0.0000017643041	0.0000017643041	0.0000017643041
2.0677966	0.0000018844325	0.0000018844325	0.0000018844325
2.1186441	0.0000020064000	0.0000020064000	0.0000020064000
2.1694915	0.0000021489191	0.0000021489191	0.0000021489191
2.2203390	0.0000023134597	0.0000023134597	0.0000023134597
2.2711864	0.0000025035299	0.0000025035299	0.0000025035299
2.3220339	0.0000026774686	0.0000026774686	0.0000026774686
2.3728814	0.0000027945925	0.0000027945925	0.0000027945925
2.4237288	0.0000029999951	0.0000029999951	0.0000029999951
2.4745763	0.0000032316719	0.0000032316719	0.0000032316719
2.5254237	0.0000033474236	0.0000033474236	0.0000033474236
2.5762712	0.0000036581388	0.0000036581388	0.0000036581388
2.6271186	0.0000037622555	0.0000037622555	0.0000037622555
2.6779661	0.0000040870355	0.0000040870355	0.0000040870355
2.7288136	0.0000042651916	0.0000042651916	0.0000042651916
2.7796610	0.0000044726302	0.0000044726302	0.0000044726302
2.8305085	0.0000048556457	0.0000048556457	0.0000048556457
2.8813559	0.0000049769074	0.0000049769074	0.0000049769074
2.9322034	0.0000052340141	0.0000052340141	0.0000052340141
2.9830508	0.0000056715996	0.0000056715996	0.0000056715996
3.0338983	0.0000059042879	0.0000059042879	0.0000059042879
3.0847458	0.0000060354023	0.0000060354023	0.0000060354023
3.1355932	0.0000064140386	0.0000064140386	0.0000064140386
3.1864407	0.0000069030841	0.0000069030841	0.0000069030841
3.2372881	0.0000072415501	0.0000072415501	0.0000072415501
3.2881356	0.0000073920791	0.0000073920791	0.0000073920791
3.3389831	0.0000076173584	0.0000076173584	0.0000076173584
3.3898305	0.0000080640819	0.0000080640819	0.0000080640819
3.4406780	0.0000086214673	0.0000086214673	0.0000086214673
3.4915254	0.0000091332325	0.0000091332325	0.0000091332325
3.5423729	0.0000094901980	0.0000094901980	0.0000094901980
3.5932203	0.0000097027339	0.0000097027339	0.0000097027339
3.6440678	0.0000099165944	0.0000099165944	0.0000099165944
3.6949153	0.000010274659	0.000010274659	0.000010274659
3.7457627	0.000010802468	0.000010802468	0.000010802468
3.7966102	0.000011436682	0.000011436682	0.000011436682
3.8474576	0.000012099800	0.000012099800	0.000012099800
3.8983051	0.00031678083	0.00031678083	0.00031678083
3.9491525	0.0012894654	0.0012894654	0.0012894654
4.0000000	0.0021651126	0.0021651126	0.0021651126
4.0508475	0.0027763393	0.0027763393	0.0027763393
4.1016949	0.0031328222	0.0031328222	0.0031328222
4.1525424	0.0033333780	0.0033333780	0.0033333780
4.2033898	0.0034629038	0.0034629038	0.0034629038
4.2542373	0.0035386460	0.0035386460	0.0035386460
4.3050847	0.0035175290	0.0035175290	0.0035175290
4.3559322	0.0033384980	0.0033384980	0.0033384980
4.4067797	0.0029657773	0.0029657773	0.0029657773
4.4576271	0.0024114918	0.0024114918	0.0024114918
4.5084746	0.0017335811	0.0017335811	0.0017335811
4.5593220	0.0010169002	0.0010169002	0.0010169002
4.6101695	0.00034911878	0.00034911878	0.00034911878
4.6610169	-0.00019925974	-0.00019925974	-0.00019925974
4.7118644	-0.00058611274	-0.00058611274	-0.00058611274
4.7627119	-0.00079979982	-0.00079979982	-0.00079979982
4.8135593	-0.00085444905	-0.00085444905	-0.00085444905
4.8644068	-0.00078163192	-0.00078163192	-0.00078163192
4.9152542	-0.00062131292	-0.00062131292	-0.00062131292
4.9661017	-0.00041405426	-0.00041405426	-0.00041405426
5.0169492	-0.00019546058	-0.00019546058	-0.00019546058
5.0677966	0.0000069533508	0.0000069533508	0.0000069533508
5.1186441	0.00017479981	0.00017479981	0.00017479981
5.1694915	0.00029832492	0.00029832492	0.00029832492
5.2203390	0.00037498576	0.00037498576	0.00037498576
5.2711864	0.00040761510	0.00040761510	0.00040761510
5.3220339	0.00040255576	0.00040255576	0.00040255576
5.3728814	0.00036800640	0.00036800640	0.00036800640
5.4237288	0.00031270103	0.00031270103	0.00031270103
5.4745763	0.00024495589	0.00024495589	0.00024495589
5.5254237	0.00017205967	0.00017205967	0.00017205967
5.5762712	0.000099952063	0.000099952063	0.000099952063
5.6271186	0.000033123543	0.000033123543	0.000033123543
5.6779661	-0.000025329541	-0.000025329541	-0.000025329541
5.7288136	-0.000073552425	-0.000073552425	-0.000073552425
5.7796610	-0.00011072825	-0.00011072825	-0.00011072825
5.8305085	-0.00013685770	-0.00013685770	-0.00013685770
5.8813559	-0.00015254541	-0.00015254541	-0.00015254541
5.9322034	-0.00015880781	-0.00015880781	-0.00015880781
5.9830508	-0.00015690984	-0.00015690984	-0.00015690984
6.0338983	-0.00014823314	-0.00014823314	-0.00014823314
6.0847458	-0.00013417479	-0.00013417479	-0.00013417479
6.1355932	-0.00011607386	-0.00011607386	-0.00011607386
6.1864407	-0.000095161693	-0.000095161693	-0.000095161693
6.2372881	-0.000072531747	-0.000072531747	-0.000072531747
6.2881356	-0.000049124758	-0.000049124758	-0.000049124758
6.3389831	-0.000025725464	-0.000025725464	-0.000025725464
6.3898305	-0.0000029675866	-0.0000029675866	-0.0000029675866
6.4406780	0.000018655635	0.000018655635	0.000018655635
6.4915254	0.000038777529	0.000038777529	0.000038777529
6.5423729	0.000057142369	0.000057142369	0.000057142369
6.5932203	0.000073589276	0.000073589276	0.000073589276
6.6440678	0.000088036519	0.000088036519	0.000088036519
6.6949153	0.00010046680	0.00010046680	0.00010046680
6.7457627	0.00011091386	0.00011091386	0.00011091386
6.7966102	0.00011945064	0.00011945064	0.00011945064
6.8474576	0.00012617900	0.00012617900	0.00012617900
6.8983051	0.00013122096	0.00013122096	0.00013122096
6.9491525	0.00013471143	0.00013471143	0.00013471143
7.0000000	0.00013679229	0.00013679229	0.00013679229
7.0508475	0.00013760759	0.00013760759	0.00013760759
7.1016949	0.00013729986	0.00013729986	0.00013729986
7.1525424	0.00013600731	0.00013600731	0.00013600731
7.2033898	0.00013386172	0.00013386172	0.00013386172
7.2542373	0.00013098702	0.00013098702	0.00013098702
7.3050847	0.00012749839	0.00012749839	0.00012749839
7.3559322	0.00012350169	0.00012350169	0.00012350169
7.4067797	0.00011909333	0.00011909333	0.00011909333
7.4576271	0.00011436031	0.00011436031	0.00011436031
7.5084746	0.00010938046	0.00010938046	0.00010938046
7.5593220	0.00010422288	0.00010422288	0.00010422288
7.6101695	0.000098948352	0.000098948352	0.000098948352
7.6610169	0.000093609969	0.000093609969	0.000093609969
7.7118644	0.000088253660	0.000088253660	0.000088253660
7.7627119	0.000082918813	0.000082918813	0.000082918813
7.8135593	0.000077638860	0.000077638860	0.000077638860
7.8644068	0.000072441858	0.000072441858	0.000072441858
7.9152542	0.000067351044	0.000067351044	0.000067351044
7.9661017	0.000062385355	0.000062385355	0.000062385355
8.0169492	0.000057559927	0.000057559927	0.000057559927
8.0677966	0.000052886541	0.000052886541	0.000052886541
8.1186441	0.000048374050	0.000048374050	0.000048374050
8.1694915	0.000044028757	0.000044028757	0.000044028757
8.2203390	0.000039854765	0.000039854765	0.000039854765
8.2711864	0.000035854284	0.000035854284	0.000035854284
8.3220339	0.000032027919	0.000032027919	0.000032027919
8.3728814	0.000028374915	0.000028374915	0.000028374915
8.4237288	0.000024893383	0.000024893383	0.000024893383
8.4745763	0.000021580492	0.000021580492	0.000021580492
8.5254237	0.000018432649	0.000018432649	0.000018432649
8.5762712	0.000015445641	0.000015445641	0.000015445641
8.6271186	0.000012614774	0.000012614774	0.000012614774
8.6779661	0.0000099349869	0.0000099349869	0.0000099349869
8.7288136	0.0000074009450	0.0000074009450	0.0000074009450
8.7796610	0.0000050071297	0.0000050071297	0.0000050071297
8.8305085	0.0000027479083	0.0000027479083	0.0000027479083
8.8813559	6.1759585e-7	6.1759585e-7	6.1759585e-7
8.9322034	-0.0000013894937	-0.0000013894937	-0.0000013894937
8.9830508	-0.0000032790047	-0.0000032790047	-0.0000032790047
9.0338983	-0.0000050565041	-0.0000050565041	-0.0000050565041
9.0847458	-0.0000067274531	-0.0000067274531	-0.0000067274531
9.1355932	-0.0000082971833	-0.0000082971833	-0.0000082971833
9.1864407	-0.0000097708790	-0.0000097708790	-0.0000097708790
9.2372881	-0.000011153563	-0.000011153563	-0.000011153563
9.2881356	-0.000012450086	-0.000012450086	-0.000012450086
9.3389831	-0.000013665119	-0.000013665119	-0.000013665119
9.3898305	-0.000014803150	-0.000014803150	-0.000014803150
9.4406780	-0.000015868480	-0.000015868480	-0.000015868480
9.4915254	-0.000016865221	-0.000016865221	-0.000016865221
9.5423729	-0.000017797302	-0.000017797302	-0.000017797302
9.5932203	-0.000018668466	-0.000018668466	-0.000018668466
9.6440678	-0.000019482276	-0.000019482276	-0.000019482276
9.6949153	-0.000020242117	-0.000020242117	-0.000020242117
9.7457627	-0.000020951203	-0.000020951203	-0.000020951203
9.7966102	-0.000021612583	-0.000021612583	-0.000021612583
9.8474576	-0.000022229140	-0.000022229140	-0.000022229140
9.8983051	-0.000022803608	-0.000022803608	-0.000022803608
9.9491525	-0.000023338566	-0.000023338566	-0.000023338566
10.000000	-0.000023836454	-0.000023836454	-0.000023836454
