# Filename: 022421_Aer_AW_15N2H_BL21_150K_DEER_3us.DSC_db6_symmetric_denoised.txt
# Bckg_type: strexp_fixed_0.95_0.5
# FirstColumn: Time[us]
# SecondColumn: BckgSubtractedData
0.00000e+00	1.764108594045316e-02
8.00000e-03	1.767976026197872e-02
1.60000e-02	1.771033396905761e-02
2.40000e-02	1.772136634305462e-02
3.20000e-02	1.771559392141272e-02
4.00000e-02	1.769370896963673e-02
4.80000e-02	1.764918589850409e-02
5.60000e-02	1.758094165938399e-02
6.40000e-02	1.748360597186991e-02
7.20000e-02	1.734685039392477e-02
8.00000e-02	1.718177772400695e-02
8.80000e-02	1.699375497681651e-02
9.60000e-02	1.676511598481049e-02
1.04000e-01	1.648545056367927e-02
1.12000e-01	1.614769303707969e-02
1.20000e-01	1.574177588618356e-02
1.28000e-01	1.527513574461826e-02
1.36000e-01	1.476043255174504e-02
1.44000e-01	1.418166764623904e-02
1.52000e-01	1.353428688438773e-02
1.60000e-01	1.283711393212899e-02
1.68000e-01	1.209959087927420e-02
1.76000e-01	1.134216822422193e-02
1.84000e-01	1.058083732143481e-02
1.92000e-01	9.805414140086200e-03
2.00000e-01	9.006073405311385e-03
2.08000e-01	8.188426879517204e-03
2.16000e-01	7.350906452599627e-03
2.24000e-01	6.488462393571310e-03
2.32000e-01	5.601292853281625e-03
2.40000e-01	4.672910634508446e-03
2.48000e-01	3.697953234697245e-03
2.56000e-01	2.685084774161182e-03
2.64000e-01	1.638651773775444e-03
2.72000e-01	5.780455586897674e-04
2.80000e-01	-4.830419554070201e-04
2.88000e-01	-1.547560617300231e-03
2.96000e-01	-2.614057364664854e-03
3.04000e-01	-3.681746373435869e-03
3.12000e-01	-4.751170369458242e-03
3.20000e-01	-5.810944709299923e-03
3.28000e-01	-6.847415484983315e-03
3.36000e-01	-7.864111791514852e-03
3.44000e-01	-8.859217035234332e-03
3.52000e-01	-9.817587769756688e-03
3.60000e-01	-1.072998712320038e-02
3.68000e-01	-1.158342609709523e-02
3.76000e-01	-1.236755600857110e-02
3.84000e-01	-1.308617761780116e-02
3.92000e-01	-1.374474260302281e-02
4.00000e-01	-1.433928537963969e-02
4.08000e-01	-1.486961031814027e-02
4.16000e-01	-1.534302326300016e-02
4.24000e-01	-1.576373085272824e-02
4.32000e-01	-1.613975178424860e-02
4.40000e-01	-1.647747834633170e-02
4.48000e-01	-1.677466339743864e-02
4.56000e-01	-1.702926145999723e-02
4.64000e-01	-1.724388356673886e-02
4.72000e-01	-1.741889260804529e-02
4.80000e-01	-1.755392151852248e-02
4.88000e-01	-1.765016826301469e-02
4.96000e-01	-1.770332906673642e-02
5.04000e-01	-1.771280357085525e-02
5.12000e-01	-1.768217713742072e-02
5.20000e-01	-1.761355452047302e-02
5.28000e-01	-1.751454714888651e-02
5.36000e-01	-1.739057728889558e-02
5.44000e-01	-1.724133291929015e-02
5.52000e-01	-1.706812759681363e-02
5.60000e-01	-1.687144563088450e-02
5.68000e-01	-1.665163375793601e-02
5.76000e-01	-1.641355129794358e-02
5.84000e-01	-1.616260163781755e-02
5.92000e-01	-1.589880803806392e-02
6.00000e-01	-1.562390135656943e-02
6.08000e-01	-1.534332049631787e-02
6.16000e-01	-1.506064459301639e-02
6.24000e-01	-1.478112570056463e-02
6.32000e-01	-1.450874028138536e-02
6.40000e-01	-1.424307699236792e-02
6.48000e-01	-1.398338050602026e-02
6.56000e-01	-1.373063163900378e-02
6.64000e-01	-1.348514458964415e-02
6.72000e-01	-1.324571986607725e-02
6.80000e-01	-1.301172347247740e-02
6.88000e-01	-1.278200903274327e-02
6.96000e-01	-1.255560321732907e-02
7.04000e-01	-1.233308696424633e-02
7.12000e-01	-1.211509298393683e-02
7.20000e-01	-1.190106198893885e-02
7.28000e-01	-1.169094744321471e-02
7.36000e-01	-1.148521769357403e-02
7.44000e-01	-1.128393353742298e-02
7.52000e-01	-1.108812796478367e-02
7.60000e-01	-1.089822566046476e-02
7.68000e-01	-1.071355074378305e-02
7.76000e-01	-1.053364115411202e-02
7.84000e-01	-1.035755818644919e-02
7.92000e-01	-1.018450179884184e-02
8.00000e-01	-1.001443866316358e-02
8.08000e-01	-9.847216836600401e-03
8.16000e-01	-9.682370207157363e-03
8.24000e-01	-9.519689780330961e-03
8.32000e-01	-9.358695189707602e-03
8.40000e-01	-9.198669644396789e-03
8.48000e-01	-9.039983942938026e-03
8.56000e-01	-8.882725267892853e-03
8.64000e-01	-8.725844269969760e-03
8.72000e-01	-8.568661991805421e-03
8.80000e-01	-8.410657989173537e-03
8.88000e-01	-8.251187425649382e-03
8.96000e-01	-8.090479525576594e-03
9.04000e-01	-7.929031734921084e-03
9.12000e-01	-7.765962481485441e-03
9.20000e-01	-7.600933632129846e-03
9.28000e-01	-7.434783290088428e-03
9.36000e-01	-7.267899772673906e-03
9.44000e-01	-7.101137166888503e-03
9.52000e-01	-6.935185473472908e-03
9.60000e-01	-6.769478996346659e-03
9.68000e-01	-6.603442583567834e-03
9.76000e-01	-6.437380030187250e-03
9.84000e-01	-6.271200985702561e-03
9.92000e-01	-6.104525411925829e-03
1.00000e+00	-5.937277780973609e-03
1.00800e+00	-5.768543112834052e-03
1.01600e+00	-5.597941068831213e-03
1.02400e+00	-5.425923027546692e-03
1.03200e+00	-5.252727640149342e-03
1.04000e+00	-5.079171679068724e-03
1.04800e+00	-4.905897751442419e-03
1.05600e+00	-4.732743772657495e-03
1.06400e+00	-4.559712902312440e-03
1.07200e+00	-4.387042552938285e-03
1.08000e+00	-4.214753304659304e-03
1.08800e+00	-4.043276236327047e-03
1.09600e+00	-3.873251782324152e-03
1.10400e+00	-3.704219430059445e-03
1.11200e+00	-3.536063244803179e-03
1.12000e+00	-3.369685125884724e-03
1.12800e+00	-3.205605483717300e-03
1.13600e+00	-3.044451451510558e-03
1.14400e+00	-2.886845460724443e-03
1.15200e+00	-2.732426898749307e-03
1.16000e+00	-2.580705360287196e-03
1.16800e+00	-2.432256333375661e-03
1.17600e+00	-2.287164406085701e-03
1.18400e+00	-2.144875268192170e-03
1.19200e+00	-2.005190229446875e-03
1.20000e+00	-1.867130191999457e-03
1.20800e+00	-1.730111773465266e-03
1.21600e+00	-1.594603537815350e-03
1.22400e+00	-1.460883044666387e-03
1.23200e+00	-1.329260900197282e-03
1.24000e+00	-1.200133193143564e-03
1.24800e+00	-1.073294484022146e-03
1.25600e+00	-9.485546094046183e-04
1.26400e+00	-8.264534081353576e-04
1.27200e+00	-7.069509974721183e-04
1.28000e+00	-5.900710892028354e-04
1.28800e+00	-4.761204956803723e-04
1.29600e+00	-3.637918825696988e-04
1.30400e+00	-2.524811143356681e-04
1.31200e+00	-1.428158728155081e-04
1.32000e+00	-3.489991560059265e-05
1.32800e+00	7.032561326072184e-05
1.33600e+00	1.722687202277945e-04
1.34400e+00	2.718709756149982e-04
1.35200e+00	3.699401183602724e-04
1.36000e+00	4.666756582987632e-04
1.36800e+00	5.626050752963510e-04
1.37600e+00	6.580395087345784e-04
1.38400e+00	7.530713772629624e-04
1.39200e+00	8.488832799331470e-04
1.40000e+00	9.458802744051904e-04
1.40800e+00	1.043888529160429e-03
1.41600e+00	1.143081249808273e-03
1.42400e+00	1.242134199555766e-03
1.43200e+00	1.340281185507368e-03
1.44000e+00	1.438210022276622e-03
1.44800e+00	1.536128033147247e-03
1.45600e+00	1.634507272794415e-03
1.46400e+00	1.733812659189558e-03
1.47200e+00	1.833184951391689e-03
1.48000e+00	1.931645759474026e-03
1.48800e+00	2.029623882212149e-03
1.49600e+00	2.126978976073365e-03
1.50400e+00	2.222778094658906e-03
1.51200e+00	2.316584998893059e-03
1.52000e+00	2.407051840945883e-03
1.52800e+00	2.493343592110600e-03
1.53600e+00	2.575999566838984e-03
1.54400e+00	2.655377743761682e-03
1.55200e+00	2.731814940331705e-03
1.56000e+00	2.805810452001559e-03
1.56800e+00	2.877251785372713e-03
1.57600e+00	2.945990308860677e-03
1.58400e+00	3.012849160027650e-03
1.59200e+00	3.078040475939826e-03
1.60000e+00	3.141530227933524e-03
1.60800e+00	3.203747080410730e-03
1.61600e+00	3.263544527692870e-03
1.62400e+00	3.320212220926105e-03
1.63200e+00	3.374973834243949e-03
1.64000e+00	3.428511116888962e-03
1.64800e+00	3.481096876595838e-03
1.65600e+00	3.533470211700811e-03
1.66400e+00	3.584927393312746e-03
1.67200e+00	3.634372911602934e-03
1.68000e+00	3.683521520108835e-03
1.68800e+00	3.732834698852909e-03
1.69600e+00	3.780920128470323e-03
1.70400e+00	3.827320498568239e-03
1.71200e+00	3.869772660397851e-03
1.72000e+00	3.906884784179109e-03
1.72800e+00	3.940007408429224e-03
1.73600e+00	3.970101079824971e-03
1.74400e+00	3.997750136909687e-03
1.75200e+00	4.023924512548934e-03
1.76000e+00	4.048488178752720e-03
1.76800e+00	4.071176328822170e-03
1.77600e+00	4.093696200499437e-03
1.78400e+00	4.116283638850558e-03
1.79200e+00	4.138837232847115e-03
1.80000e+00	4.161980056491260e-03
1.80800e+00	4.182713021112444e-03
1.81600e+00	4.199530215563163e-03
1.82400e+00	4.214004085445078e-03
1.83200e+00	4.226539669678404e-03
1.84000e+00	4.238927245418370e-03
1.84800e+00	4.252487829281059e-03
1.85600e+00	4.265195247458936e-03
1.86400e+00	4.275090330497611e-03
1.87200e+00	4.282413002678306e-03
1.88000e+00	4.286408292490375e-03
1.88800e+00	4.285839265641612e-03
1.89600e+00	4.280253781776691e-03
1.90400e+00	4.266842633684096e-03
1.91200e+00	4.244344920917912e-03
1.92000e+00	4.213633570551324e-03
1.92800e+00	4.174937292932463e-03
1.93600e+00	4.130471142440919e-03
1.94400e+00	4.081871339915172e-03
1.95200e+00	4.028212106126090e-03
1.96000e+00	3.969175345081371e-03
1.96800e+00	3.905077644007989e-03
1.97600e+00	3.835631825487707e-03
1.98400e+00	3.762066026449287e-03
1.99200e+00	3.686243159427847e-03
2.00000e+00	3.606560362250973e-03
2.00800e+00	3.522604648745544e-03
2.01600e+00	3.437003506843264e-03
2.02400e+00	3.351174323382673e-03
2.03200e+00	3.267287056121648e-03
2.04000e+00	3.187333618200647e-03
2.04800e+00	3.110018414930824e-03
2.05600e+00	3.033865840140035e-03
2.06400e+00	2.960367480832767e-03
2.07200e+00	2.889497542202585e-03
2.08000e+00	2.820061625546402e-03
2.08800e+00	2.751911923923688e-03
2.09600e+00	2.681755471204279e-03
2.10400e+00	2.607944745769485e-03
2.11200e+00	2.532139350108766e-03
2.12000e+00	2.454963617661641e-03
2.12800e+00	2.378475916822448e-03
2.13600e+00	2.304764541442554e-03
2.14400e+00	2.232156586134992e-03
2.15200e+00	2.159427859219299e-03
2.16000e+00	2.088586603732505e-03
2.16800e+00	2.019246082437674e-03
2.17600e+00	1.951973890209893e-03
2.18400e+00	1.888943226151355e-03
2.19200e+00	1.824541711422529e-03
2.20000e+00	1.756154324296768e-03
2.20800e+00	1.688111577094835e-03
2.21600e+00	1.622227522153392e-03
2.22400e+00	1.562479542853846e-03
2.23200e+00	1.512200776794312e-03
2.24000e+00	1.467783709599364e-03
2.24800e+00	1.425334786746727e-03
2.25600e+00	1.386639707588397e-03
2.26400e+00	1.351106577573919e-03
2.27200e+00	1.315526678360239e-03
2.28000e+00	1.278651856179102e-03
2.28800e+00	1.234891273553030e-03
2.29600e+00	1.181360015362064e-03
2.30400e+00	1.120444707025816e-03
2.31200e+00	1.053627794892886e-03
2.32000e+00	9.841177585621452e-04
2.32800e+00	9.147463033196728e-04
2.33600e+00	8.451123260529167e-04
2.34400e+00	7.752231743337344e-04
2.35200e+00	7.069587870828809e-04
2.36000e+00	6.408272497428843e-04
2.36800e+00	5.781273299008987e-04
2.37600e+00	5.213740205328479e-04
2.38400e+00	4.680003671218348e-04
2.39200e+00	4.167695116190562e-04
2.40000e+00	3.720400479664299e-04
2.40800e+00	3.364505584864891e-04
2.41600e+00	3.116540137188377e-04
2.42400e+00	3.001499859186828e-04
2.43200e+00	3.003017961360553e-04
2.44000e+00	3.091521966062574e-04
2.44800e+00	3.309019719008082e-04
2.45600e+00	3.668980002220489e-04
2.46400e+00	4.126018838886284e-04
2.47200e+00	4.658154138250936e-04
2.48000e+00	5.216450852346223e-04
2.48800e+00	5.762680658405007e-04
2.49600e+00	6.323914015794764e-04
2.50400e+00	6.926558827037739e-04
2.51200e+00	7.557332944004389e-04
2.52000e+00	8.221231937662754e-04
2.52800e+00	8.933049897551199e-04
2.53600e+00	9.694042374792136e-04
2.54400e+00	1.054721403745984e-03
2.55200e+00	1.150787980713438e-03
2.56000e+00	1.255511136336927e-03
2.56800e+00	1.367867263499968e-03
2.57600e+00	1.483219588245929e-03
2.58400e+00	1.598269112347935e-03
2.59200e+00	1.713827177794991e-03
2.60000e+00	1.829651930550390e-03
2.60800e+00	1.945480665819642e-03
2.61600e+00	2.061481291533902e-03
2.62400e+00	2.174998775100375e-03
2.63200e+00	2.282745788279308e-03
2.64000e+00	2.385854212298283e-03
2.64800e+00	2.484088286220201e-03
2.65600e+00	2.573651541180347e-03
2.66400e+00	2.652265765875009e-03
2.67200e+00	2.716822117932429e-03
2.68000e+00	2.764759807414223e-03
2.68800e+00	2.797185192058188e-03
2.69600e+00	2.815670623403710e-03
2.70400e+00	2.819007230076036e-03
2.71200e+00	2.807122293051429e-03
2.72000e+00	2.782080604021371e-03
2.72800e+00	2.745028892011558e-03
