# Filename: 011619_AerCheACheW_Bl21_4PDeer_3200ns_150K.DSC_db6_symmetric_denoised.txt
# Bckg_type: poly2_0.9_0.75
# FirstColumn: Time[us]
# SecondColumn: BckgSubtractedData
-6.40000e-03	1.128710994632155e-02
9.60000e-03	1.182321508712623e-02
2.56000e-02	1.239111174297130e-02
4.16000e-02	1.303675319955766e-02
5.76000e-02	1.370077287979016e-02
7.36000e-02	1.433172179346945e-02
8.96000e-02	1.491862873864671e-02
1.05600e-01	1.543051332108561e-02
1.21600e-01	1.584649516139355e-02
1.37600e-01	1.615944303486260e-02
1.53600e-01	1.629883325302092e-02
1.69600e-01	1.624237934870138e-02
1.85600e-01	1.600013521520526e-02
2.01600e-01	1.556483419955601e-02
2.17600e-01	1.502113046613504e-02
2.33600e-01	1.441389842585152e-02
2.49600e-01	1.371457067268913e-02
2.65600e-01	1.292363407225220e-02
2.81600e-01	1.199827786653586e-02
2.97600e-01	1.091339377063437e-02
3.13600e-01	9.727667022093194e-03
3.29600e-01	8.494789131729859e-03
3.45600e-01	7.229518294400667e-03
3.61600e-01	5.963455595762427e-03
3.77600e-01	4.727582341948885e-03
3.93600e-01	3.539510795169335e-03
4.09600e-01	2.464009486335557e-03
4.25600e-01	1.528903337864890e-03
4.41600e-01	7.316217195870273e-04
4.57600e-01	8.044277164708195e-05
4.73600e-01	-4.791674653909599e-04
4.89600e-01	-9.740093126717291e-04
5.05600e-01	-1.383785610657869e-03
5.21600e-01	-1.708280501542154e-03
5.37600e-01	-1.913389225666104e-03
5.53600e-01	-1.979940136221855e-03
5.69600e-01	-1.947189077497236e-03
5.85600e-01	-1.848913729015924e-03
6.01600e-01	-1.699564204652496e-03
6.17600e-01	-1.523323588455912e-03
6.33600e-01	-1.334973448665739e-03
6.49600e-01	-1.142678629256664e-03
6.65600e-01	-9.893412982470533e-04
6.81600e-01	-8.903660632411831e-04
6.97600e-01	-8.466921883731524e-04
7.13600e-01	-8.688822605498724e-04
7.29600e-01	-9.113752738349833e-04
7.45600e-01	-9.532318227299553e-04
7.61600e-01	-1.015572872734444e-03
7.77600e-01	-1.101469201314007e-03
7.93600e-01	-1.244005566731873e-03
8.09600e-01	-1.463074939466665e-03
8.25600e-01	-1.726105238740290e-03
8.41600e-01	-2.005339512572682e-03
8.57600e-01	-2.290886654492852e-03
8.73600e-01	-2.563568397820810e-03
8.89600e-01	-2.812527424108553e-03
9.05600e-01	-3.033060473430498e-03
9.21600e-01	-3.187897927777919e-03
9.37600e-01	-3.264822186923240e-03
9.53600e-01	-3.265867577478537e-03
9.69600e-01	-3.183645265070970e-03
9.85600e-01	-3.061475219269505e-03
1.00160e+00	-2.921082387339574e-03
1.01760e+00	-2.743654552058979e-03
1.03360e+00	-2.526652368737999e-03
1.04960e+00	-2.244277669428595e-03
1.06560e+00	-1.880066847539865e-03
1.08160e+00	-1.464438308786333e-03
1.09760e+00	-1.025219768075852e-03
1.11360e+00	-5.671416230855111e-04
1.12960e+00	-1.057008825873353e-04
1.14560e+00	3.437487952592266e-04
1.16160e+00	7.739384566958548e-04
1.17760e+00	1.147700151435974e-03
1.19360e+00	1.449488051401198e-03
1.20960e+00	1.684146046805406e-03
1.22560e+00	1.848456653666587e-03
1.24160e+00	1.975096779114372e-03
1.25760e+00	2.082733847698104e-03
1.27360e+00	2.156499044204024e-03
1.28960e+00	2.192836957281777e-03
1.30560e+00	2.179354273870609e-03
1.32160e+00	2.105547399272689e-03
1.33760e+00	1.992281689291160e-03
1.35360e+00	1.862268997531506e-03
1.36960e+00	1.709542775207514e-03
1.38560e+00	1.539193275832727e-03
1.40160e+00	1.371476322052134e-03
1.41760e+00	1.216710538327536e-03
1.43360e+00	1.103090093689050e-03
1.44960e+00	1.047242456021342e-03
1.46560e+00	1.040126633537703e-03
1.48160e+00	1.075288447057060e-03
1.49760e+00	1.143075318011142e-03
1.51360e+00	1.233955825292228e-03
1.52960e+00	1.347310513148791e-03
1.54560e+00	1.481948203490819e-03
1.56160e+00	1.629031889520219e-03
1.57760e+00	1.785004462261600e-03
1.59360e+00	1.945891533581277e-03
1.60960e+00	2.103473532020559e-03
1.62560e+00	2.266027974860969e-03
1.64160e+00	2.437519641611251e-03
1.65760e+00	2.602975001128603e-03
1.67360e+00	2.753066957085387e-03
1.68960e+00	2.882288826849913e-03
1.70560e+00	2.981547700454314e-03
1.72160e+00	3.055761658153996e-03
1.73760e+00	3.114186536486197e-03
1.75360e+00	3.140399410014243e-03
1.76960e+00	3.128767708405105e-03
1.78560e+00	3.093201417763324e-03
1.80160e+00	3.039200307710941e-03
1.81760e+00	2.984702641421883e-03
1.83360e+00	2.942187684923442e-03
1.84960e+00	2.900126790905180e-03
1.86560e+00	2.848572276267211e-03
1.88160e+00	2.787515233672869e-03
1.89760e+00	2.711724476224767e-03
1.91360e+00	2.617802804031762e-03
1.92960e+00	2.505764637467529e-03
1.94560e+00	2.359800078906552e-03
1.96160e+00	2.175309685678748e-03
1.97760e+00	1.956635557151947e-03
1.99360e+00	1.703389389489934e-03
2.00960e+00	1.435813644757038e-03
2.02560e+00	1.165916817852912e-03
2.04160e+00	8.863691539079084e-04
2.05760e+00	5.962197767278134e-04
2.07360e+00	2.891727025558572e-04
2.08960e+00	-3.983706770257687e-05
2.10560e+00	-3.781403302433903e-04
2.12160e+00	-7.120815067013786e-04
2.13760e+00	-1.043877551490960e-03
2.15360e+00	-1.370028345865397e-03
2.16960e+00	-1.678347351614041e-03
2.18560e+00	-1.962084906358282e-03
2.20160e+00	-2.205933843811490e-03
2.21760e+00	-2.400721063075336e-03
2.23360e+00	-2.550483053278180e-03
2.24960e+00	-2.658709819593469e-03
2.26560e+00	-2.730187429752480e-03
2.28160e+00	-2.769057967913985e-03
2.29760e+00	-2.777728829886362e-03
2.31360e+00	-2.758879509155799e-03
2.32960e+00	-2.715119744425775e-03
2.34560e+00	-2.648814963245755e-03
2.36160e+00	-2.563189039019231e-03
2.37760e+00	-2.461654182582024e-03
2.39360e+00	-2.345947334353627e-03
2.40960e+00	-2.218048150499468e-03
2.42560e+00	-2.081415865471785e-03
2.44160e+00	-1.938921212796533e-03
2.45760e+00	-1.792952126131552e-03
2.47360e+00	-1.645870954961167e-03
2.48960e+00	-1.499066619643369e-03
2.50560e+00	-1.353266379171322e-03
2.52160e+00	-1.210677059645221e-03
2.53760e+00	-1.073139235184734e-03
2.55360e+00	-9.400562022186655e-04
2.56960e+00	-8.112177093453686e-04
2.58560e+00	-6.875811075905650e-04
2.60160e+00	-5.692145735047148e-04
2.61760e+00	-4.570226788432755e-04
2.63360e+00	-3.527360796459168e-04
2.64960e+00	-2.544395795776093e-04
2.66560e+00	-1.612356297522316e-04
2.68160e+00	-7.605976958112826e-05
2.69760e+00	-6.090466971158842e-07
2.71360e+00	6.380460124068784e-05
2.72960e+00	1.154431542692183e-04
2.74560e+00	1.556184495416206e-04
2.76160e+00	1.864335146180616e-04
2.77760e+00	2.053258931296260e-04
2.79360e+00	2.116458665577618e-04
2.80960e+00	2.083494364204073e-04
2.82560e+00	1.968507374823032e-04
