# Filename: 022421_AerAW15N2H_B21_150K_DEE_4000ns_42MHz.DSC_db6_symmetric_denoised.txt
# Bckg_type: poly2_0.9_0.75
# FirstColumn: Time[us]
# SecondColumn: BckgSubtractedData
8.00000e-04	1.966801710985490e-02
8.80000e-03	2.002001487529997e-02
1.68000e-02	2.028596026441685e-02
2.48000e-02	2.046184212602612e-02
3.28000e-02	2.051036873470000e-02
4.08000e-02	2.040828410402234e-02
4.88000e-02	2.019520490951423e-02
5.68000e-02	1.990600365667194e-02
6.48000e-02	1.954933479881143e-02
7.28000e-02	1.914752480538696e-02
8.08000e-02	1.871667063041757e-02
8.88000e-02	1.826358407061296e-02
9.68000e-02	1.783805133233936e-02
1.04800e-01	1.745928071793812e-02
1.12800e-01	1.712209391598847e-02
1.20800e-01	1.683445466047721e-02
1.28800e-01	1.654758718458843e-02
1.36800e-01	1.623427675597604e-02
1.44800e-01	1.592191199516890e-02
1.52800e-01	1.562003942258199e-02
1.60800e-01	1.534927203537403e-02
1.68800e-01	1.512883359880064e-02
1.76800e-01	1.492914701269180e-02
1.84800e-01	1.471625739460452e-02
1.92800e-01	1.450571085804871e-02
2.00800e-01	1.429446039006711e-02
2.08800e-01	1.404972088671627e-02
2.16800e-01	1.375575229144553e-02
2.24800e-01	1.337039665665248e-02
2.32800e-01	1.286802092578589e-02
2.40800e-01	1.226703272155099e-02
2.48800e-01	1.158317674926358e-02
2.56800e-01	1.082854885809606e-02
2.64800e-01	1.001846395420886e-02
2.72800e-01	9.160905598492685e-03
2.80800e-01	8.261802402034299e-03
2.88800e-01	7.342765046130441e-03
2.96800e-01	6.415525269589102e-03
3.04800e-01	5.484188027772762e-03
3.12800e-01	4.559842089784717e-03
3.20800e-01	3.631895408578341e-03
3.28800e-01	2.694105488693051e-03
3.36800e-01	1.770024734055321e-03
3.44800e-01	8.758022783122858e-04
3.52800e-01	1.496225557368747e-05
3.60800e-01	-7.992653377974343e-04
3.68800e-01	-1.571148140256032e-03
3.76800e-01	-2.314025053894921e-03
3.84800e-01	-2.994133175530399e-03
3.92800e-01	-3.596807505318485e-03
4.00800e-01	-4.146799721595436e-03
4.08800e-01	-4.653602653516043e-03
4.16800e-01	-5.144515381582026e-03
4.24800e-01	-5.640254984719007e-03
4.32800e-01	-6.118445626146617e-03
4.40800e-01	-6.557304374556715e-03
4.48800e-01	-6.962306645460607e-03
4.56800e-01	-7.326627988318701e-03
4.64800e-01	-7.636831043396308e-03
4.72800e-01	-7.888950487964199e-03
4.80800e-01	-8.050709484807201e-03
4.88800e-01	-8.108716643995253e-03
4.96800e-01	-8.074849317520599e-03
5.04800e-01	-7.953702474657636e-03
5.12800e-01	-7.774122578155175e-03
5.20800e-01	-7.556641090386991e-03
5.28800e-01	-7.293254479226785e-03
5.36800e-01	-6.983260964142551e-03
5.44800e-01	-6.628327259922128e-03
5.52800e-01	-6.225847103923288e-03
5.60800e-01	-5.792483670122339e-03
5.68800e-01	-5.350079958028365e-03
5.76800e-01	-4.886670252431208e-03
5.84800e-01	-4.401722584604488e-03
5.92800e-01	-3.921903282125099e-03
6.00800e-01	-3.462113980573652e-03
6.08800e-01	-3.046254106861074e-03
6.16800e-01	-2.694026978485601e-03
6.24800e-01	-2.394464384968670e-03
6.32800e-01	-2.135037168744944e-03
6.40800e-01	-1.925108757158570e-03
6.48800e-01	-1.763069197819004e-03
6.56800e-01	-1.637916327067302e-03
6.64800e-01	-1.546102280072128e-03
6.72800e-01	-1.462421416428467e-03
6.80800e-01	-1.373430854502938e-03
6.88800e-01	-1.288469807833205e-03
6.96800e-01	-1.210301923244245e-03
7.04800e-01	-1.151920389970873e-03
7.12800e-01	-1.125245425859276e-03
7.20800e-01	-1.118693916919845e-03
7.28800e-01	-1.124303573177821e-03
7.36800e-01	-1.150600130473550e-03
7.44800e-01	-1.191958705390495e-03
7.52800e-01	-1.253061701303531e-03
7.60800e-01	-1.346270419974716e-03
7.68800e-01	-1.435314150451221e-03
7.76800e-01	-1.505580568351412e-03
7.84800e-01	-1.576877807137871e-03
7.92800e-01	-1.653233928336013e-03
8.00800e-01	-1.767396221331857e-03
8.08800e-01	-1.938806259118111e-03
8.16800e-01	-2.140808340847970e-03
8.24800e-01	-2.352186750780994e-03
8.32800e-01	-2.562352631002743e-03
8.40800e-01	-2.753962432653301e-03
8.48800e-01	-2.922481890724250e-03
8.56800e-01	-3.066983942549319e-03
8.64800e-01	-3.157301973618559e-03
8.72800e-01	-3.186136076882271e-03
8.80800e-01	-3.154024168023953e-03
8.88800e-01	-3.052224842938971e-03
8.96800e-01	-2.923907179851621e-03
9.04800e-01	-2.789796448791486e-03
9.12800e-01	-2.630402746800584e-03
9.20800e-01	-2.442936780500414e-03
9.28800e-01	-2.198799257622386e-03
9.36800e-01	-1.880219137273987e-03
9.44800e-01	-1.517826815471900e-03
9.52800e-01	-1.138652632737500e-03
9.60800e-01	-7.494445573969196e-04
9.68800e-01	-3.669637864817934e-04
9.76800e-01	-3.874303212734898e-06
9.84800e-01	3.342513373207985e-04
9.92800e-01	6.107373724810858e-04
1.00080e+00	8.118883854599904e-04
1.00880e+00	9.415689644897117e-04
1.01680e+00	9.947686962519327e-04
1.02480e+00	1.008901417757006e-03
1.03280e+00	1.004305308255838e-03
1.04080e+00	9.638650823958463e-04
1.04880e+00	8.839936488487085e-04
1.05680e+00	7.472909359949408e-04
1.06480e+00	5.406110887480224e-04
1.07280e+00	2.889405106601105e-04
1.08080e+00	1.777272156864934e-05
1.08880e+00	-2.761619132598176e-04
1.09680e+00	-5.841950260368322e-04
1.10480e+00	-8.867451003170640e-04
1.11280e+00	-1.174303467479657e-03
1.12080e+00	-1.413451733412457e-03
1.12880e+00	-1.586578774737347e-03
1.13680e+00	-1.702514140234057e-03
1.14480e+00	-1.764917254949516e-03
1.15280e+00	-1.791805284828280e-03
1.16080e+00	-1.797077129136437e-03
1.16880e+00	-1.774748239186746e-03
1.17680e+00	-1.722945202221501e-03
1.18480e+00	-1.646047802418456e-03
1.19280e+00	-1.543120890315258e-03
1.20080e+00	-1.423021656087221e-03
1.20880e+00	-1.300138717830480e-03
1.21680e+00	-1.161787653452705e-03
1.22480e+00	-1.003496545852560e-03
1.23280e+00	-8.470673081627780e-04
1.24080e+00	-7.050453681411331e-04
1.24880e+00	-5.907328097061865e-04
1.25680e+00	-5.184344920708857e-04
1.26480e+00	-4.789931530737632e-04
1.27280e+00	-4.590570401459895e-04
1.28080e+00	-4.743243197407550e-04
1.28880e+00	-5.280294313808102e-04
1.29680e+00	-6.033571032046222e-04
1.30480e+00	-6.933828783745650e-04
1.31280e+00	-7.742580102808152e-04
1.32080e+00	-8.298417995970196e-04
1.32880e+00	-8.729431956896118e-04
1.33680e+00	-9.129773059090981e-04
1.34480e+00	-9.514900571458917e-04
1.35280e+00	-9.963448042013823e-04
1.36080e+00	-1.046308005792675e-03
1.36880e+00	-1.097178547629710e-03
1.37680e+00	-1.169704177155169e-03
1.38480e+00	-1.268252368254373e-03
1.39280e+00	-1.387193760504372e-03
1.40080e+00	-1.530596783590295e-03
1.40880e+00	-1.666627835882708e-03
1.41680e+00	-1.775640447397249e-03
1.42480e+00	-1.877560573049803e-03
1.43280e+00	-1.981030632083516e-03
1.44080e+00	-2.093694505909122e-03
1.44880e+00	-2.227542738402608e-03
1.45680e+00	-2.364699438331945e-03
1.46480e+00	-2.480858060815590e-03
1.47280e+00	-2.597174112223186e-03
1.48080e+00	-2.718045080448614e-03
1.48880e+00	-2.814001515397816e-03
1.49680e+00	-2.871432259626764e-03
1.50480e+00	-2.858739665800254e-03
1.51280e+00	-2.752772704415439e-03
1.52080e+00	-2.573542017971049e-03
1.52880e+00	-2.340103421636341e-03
1.53680e+00	-2.049258297004797e-03
1.54480e+00	-1.710875619697087e-03
1.55280e+00	-1.335938504745145e-03
1.56080e+00	-9.273662798458880e-04
1.56880e+00	-5.227307223187925e-04
1.57680e+00	-1.396532350902628e-04
1.58480e+00	2.306569793001901e-04
1.59280e+00	5.842029051927897e-04
1.60080e+00	9.480769889217019e-04
1.60880e+00	1.342895208670609e-03
1.61680e+00	1.739583579846995e-03
1.62480e+00	2.119837597046950e-03
1.63280e+00	2.488728377390450e-03
1.64080e+00	2.830416668762646e-03
1.64880e+00	3.157816464844787e-03
1.65680e+00	3.497554057563270e-03
1.66480e+00	3.788955401076915e-03
1.67280e+00	4.009697636112884e-03
1.68080e+00	4.199600538516118e-03
1.68880e+00	4.369877662510325e-03
1.69680e+00	4.581971990479823e-03
1.70480e+00	4.874278379307203e-03
1.71280e+00	5.201824363683971e-03
1.72080e+00	5.528913998651031e-03
1.72880e+00	5.841698757547325e-03
1.73680e+00	6.112239376563992e-03
1.74480e+00	6.334175337176806e-03
1.75280e+00	6.508750756342692e-03
1.76080e+00	6.580505912958544e-03
1.76880e+00	6.536114610537182e-03
1.77680e+00	6.381382821229590e-03
1.78480e+00	6.103290899234628e-03
1.79280e+00	5.781582152015138e-03
1.80080e+00	5.458035032662912e-03
1.80880e+00	5.094668032137154e-03
1.81680e+00	4.683062939123007e-03
1.82480e+00	4.181204304645063e-03
1.83280e+00	3.558642272773975e-03
1.84080e+00	2.868638000855069e-03
1.84880e+00	2.164023800703015e-03
1.85680e+00	1.440928189232444e-03
1.86480e+00	7.193222003396007e-04
1.87280e+00	3.668612925250670e-05
1.88080e+00	-5.892132580918985e-04
1.88880e+00	-1.089373331856347e-03
1.89680e+00	-1.430126546899749e-03
1.90480e+00	-1.628376308066203e-03
1.91280e+00	-1.689709752081803e-03
1.92080e+00	-1.659808643614884e-03
1.92880e+00	-1.570079276738157e-03
1.93680e+00	-1.407142454271498e-03
1.94480e+00	-1.169796946243835e-03
1.95280e+00	-8.572477067752554e-04
1.96080e+00	-4.639479679901580e-04
1.96880e+00	-1.693143992148912e-05
1.97680e+00	4.498482761412891e-04
1.98480e+00	9.522608354199776e-04
1.99280e+00	1.489063745430833e-03
2.00080e+00	2.021033379714611e-03
2.00880e+00	2.526271565116836e-03
2.01680e+00	2.967147765637512e-03
2.02480e+00	3.314325667986467e-03
2.03280e+00	3.583386555424047e-03
2.04080e+00	3.791354601770036e-03
2.04880e+00	3.928753206025059e-03
2.05680e+00	3.999640558312574e-03
2.06480e+00	4.018051749656224e-03
2.07280e+00	3.988851076433850e-03
2.08080e+00	3.945119840259409e-03
2.08880e+00	3.904489704606526e-03
2.09680e+00	3.856238116895957e-03
2.10480e+00	3.798620651801339e-03
2.11280e+00	3.714526294575022e-03
2.12080e+00	3.588597044820114e-03
2.12880e+00	3.438311588226931e-03
2.13680e+00	3.275806550184589e-03
2.14480e+00	3.090846839020994e-03
2.15280e+00	2.891889803998999e-03
2.16080e+00	2.672997414117098e-03
2.16880e+00	2.417251144726481e-03
2.17680e+00	2.173559027982144e-03
2.18480e+00	1.962235684204282e-03
2.19280e+00	1.754772385132191e-03
2.20080e+00	1.544027895030183e-03
2.20880e+00	1.287724653182607e-03
2.21680e+00	9.592456484781716e-04
2.22480e+00	5.938325124020676e-04
2.23280e+00	2.211062595514448e-04
2.24080e+00	-1.500538328199905e-04
2.24880e+00	-4.994182504647488e-04
2.25680e+00	-8.170393000774457e-04
2.26480e+00	-1.100119492990832e-03
2.27280e+00	-1.306071502539249e-03
2.28080e+00	-1.422073653687967e-03
2.28880e+00	-1.452754323081896e-03
2.29680e+00	-1.390683671706112e-03
2.30480e+00	-1.288949427940617e-03
2.31280e+00	-1.175453709822379e-03
2.32080e+00	-1.027064425228636e-03
2.32880e+00	-8.398396411283695e-04
2.33680e+00	-5.861133757806457e-04
2.34480e+00	-2.469681501902677e-04
2.35280e+00	1.419824236707802e-04
2.36080e+00	5.461758507639786e-04
2.36880e+00	9.646017398061281e-04
2.37680e+00	1.382282203740944e-03
2.38480e+00	1.775813186062554e-03
2.39280e+00	2.133359334351663e-03
2.40080e+00	2.411546214318236e-03
2.40880e+00	2.589903107889292e-03
2.41680e+00	2.676447394472343e-03
2.42480e+00	2.672543513619109e-03
2.43280e+00	2.609034847611405e-03
2.44080e+00	2.504770563239581e-03
2.44880e+00	2.351455580708552e-03
2.45680e+00	2.149936451406534e-03
2.46480e+00	1.892385807539861e-03
2.47280e+00	1.573204829773944e-03
2.48080e+00	1.212553288535440e-03
2.48880e+00	8.314376948377788e-04
2.49680e+00	4.293475973966539e-04
2.50480e+00	1.377375892179296e-05
2.51280e+00	-3.975301093054549e-04
2.52080e+00	-7.942744195431888e-04
2.52880e+00	-1.152527606786196e-03
2.53680e+00	-1.458079839170561e-03
2.54480e+00	-1.715073937970072e-03
2.55280e+00	-1.925977238505324e-03
2.56080e+00	-2.098651786881566e-03
2.56880e+00	-2.239053331457548e-03
2.57680e+00	-2.346702626388808e-03
2.58480e+00	-2.422699020364911e-03
2.59280e+00	-2.468649872136447e-03
2.60080e+00	-2.485195948853696e-03
2.60880e+00	-2.477161693912769e-03
2.61680e+00	-2.450526860458541e-03
2.62480e+00	-2.403780570950452e-03
2.63280e+00	-2.337796290256153e-03
2.64080e+00	-2.259635730145695e-03
2.64880e+00	-2.173755944833691e-03
2.65680e+00	-2.086087553106029e-03
2.66480e+00	-2.001811814468878e-03
2.67280e+00	-1.919552765631262e-03
2.68080e+00	-1.837281646853318e-03
2.68880e+00	-1.758272590094350e-03
2.69680e+00	-1.683351221579798e-03
2.70480e+00	-1.610146516219540e-03
2.71280e+00	-1.538079390956564e-03
2.72080e+00	-1.462659308140110e-03
2.72880e+00	-1.381309505331444e-03
2.73680e+00	-1.296831397278593e-03
2.74480e+00	-1.211026034615339e-03
2.75280e+00	-1.125646533041761e-03
2.76080e+00	-1.043079673038009e-03
2.76880e+00	-9.625460354216040e-04
2.77680e+00	-8.832161121556688e-04
2.78480e+00	-8.086464317365866e-04
2.79280e+00	-7.391906809668215e-04
2.80080e+00	-6.749115171027467e-04
2.80880e+00	-6.176810749160287e-04
2.81680e+00	-5.608166581416717e-04
2.82480e+00	-5.009672022643629e-04
2.83280e+00	-4.424951350478506e-04
2.84080e+00	-3.870076768241364e-04
2.84880e+00	-3.385055434286791e-04
2.85680e+00	-3.003454282376891e-04
2.86480e+00	-2.682066206357806e-04
2.87280e+00	-2.374850830381741e-04
2.88080e+00	-2.099922891250619e-04
2.88880e+00	-1.848435959908450e-04
2.89680e+00	-1.583110773578058e-04
2.90480e+00	-1.289074811398810e-04
2.91280e+00	-9.008883410921294e-05
2.92080e+00	-3.844947815641527e-05
2.92880e+00	2.334601131587900e-05
2.93680e+00	9.375450072272560e-05
2.94480e+00	1.690983582007197e-04
2.95280e+00	2.460627321157945e-04
2.96080e+00	3.254481342143349e-04
2.96880e+00	4.074898840149124e-04
2.97680e+00	4.898158123894342e-04
2.98480e+00	5.719737392821878e-04
2.99280e+00	6.523626869161213e-04
3.00080e+00	7.277833832173431e-04
3.00880e+00	8.020467175562847e-04
3.01680e+00	8.768242645075241e-04
3.02480e+00	9.465659529147396e-04
3.03280e+00	1.008160926323017e-03
3.04080e+00	1.058588690255645e-03
3.04880e+00	1.094109668064873e-03
3.05680e+00	1.117448195104693e-03
3.06480e+00	1.132386989316692e-03
3.07280e+00	1.133840609626038e-03
3.08080e+00	1.120866608281269e-03
3.08880e+00	1.097728615624060e-03
3.09680e+00	1.065721198649607e-03
3.10480e+00	1.032888337702459e-03
3.11280e+00	1.003882282692010e-03
3.12080e+00	9.744714612318984e-04
3.12880e+00	9.421598192281400e-04
3.13680e+00	9.039462871519236e-04
3.14480e+00	8.561147105182928e-04
3.15280e+00	8.005043002409422e-04
3.16080e+00	7.387836750371646e-04
3.16880e+00	6.660475877848586e-04
3.17680e+00	5.825099284641569e-04
3.18480e+00	4.878680100971288e-04
3.19280e+00	3.791634769011234e-04
3.20080e+00	2.678175032785807e-04
3.20880e+00	1.592085565940940e-04
3.21680e+00	4.717919931409083e-05
3.22480e+00	-6.976116784114255e-05
3.23280e+00	-1.995173592941309e-04
3.24080e+00	-3.474747910743915e-04
3.24880e+00	-5.055843395099493e-04
3.25680e+00	-6.664782989284126e-04
3.26480e+00	-8.297796400326331e-04
3.27280e+00	-9.917015008844949e-04
3.28080e+00	-1.148379512032272e-03
3.28880e+00	-1.298419915625502e-03
3.29680e+00	-1.431077818276234e-03
3.30480e+00	-1.542030552282091e-03
3.31280e+00	-1.633578672763436e-03
3.32080e+00	-1.705285203793696e-03
3.32880e+00	-1.767155661143735e-03
3.33680e+00	-1.825494271093534e-03
3.34480e+00	-1.875459007985929e-03
3.35280e+00	-1.915503719266161e-03
3.36080e+00	-1.943645131229424e-03
3.36880e+00	-1.956997042251364e-03
3.37680e+00	-1.961608442856106e-03
3.38480e+00	-1.965016191627852e-03
3.39280e+00	-1.962456608426812e-03
3.40080e+00	-1.953848713705656e-03
3.40880e+00	-1.947478191495586e-03
3.41680e+00	-1.947296862279738e-03
3.42480e+00	-1.963232962462535e-03
3.43280e+00	-2.002175673060731e-03
3.44080e+00	-2.059104516697931e-03
3.44880e+00	-2.129773807928409e-03
3.45680e+00	-2.213990231122614e-03
3.46480e+00	-2.308592553839931e-03
3.47280e+00	-2.412353863879130e-03
3.48080e+00	-2.525543638416985e-03
