# Filename: 032119_Aer_Tar_EcA_EcW_BL21_150K_Deer_2500ns.DSC_db6_symmetric_denoised.txt
# Bckg_type: poly2_0.9_0.75
# FirstColumn: Time[us]
# SecondColumn: BckgSubtractedData
-1.60000e-03	5.318630566158770e-02
6.40000e-03	5.324290142379527e-02
1.44000e-02	5.314575002539914e-02
2.24000e-02	5.285672371989960e-02
3.04000e-02	5.235480467156834e-02
3.84000e-02	5.169177694758119e-02
4.64000e-02	5.091316029901186e-02
5.44000e-02	5.003650945154245e-02
6.24000e-02	4.909333558146406e-02
7.04000e-02	4.810597858227113e-02
7.84000e-02	4.708693651639767e-02
8.64000e-02	4.609508454906296e-02
9.44000e-02	4.515420675967504e-02
1.02400e-01	4.426447616793670e-02
1.10400e-01	4.343940378291452e-02
1.18400e-01	4.262473444310966e-02
1.26400e-01	4.179388878938023e-02
1.34400e-01	4.097754773231626e-02
1.42400e-01	4.018459254327954e-02
1.50400e-01	3.944939093794487e-02
1.58400e-01	3.879715569918851e-02
1.66400e-01	3.819133289329759e-02
1.74400e-01	3.759617058852693e-02
1.82400e-01	3.701577687059697e-02
1.90400e-01	3.643673621806941e-02
1.98400e-01	3.583535084640609e-02
2.06400e-01	3.520183480211488e-02
2.14400e-01	3.448664107729801e-02
2.22400e-01	3.366708896923825e-02
2.30400e-01	3.275709425600135e-02
2.38400e-01	3.176076296316352e-02
2.46400e-01	3.071561417735157e-02
2.54400e-01	2.964772473252532e-02
2.62400e-01	2.854443427068116e-02
2.70400e-01	2.740314781449811e-02
2.78400e-01	2.622407352989995e-02
2.86400e-01	2.500210933821128e-02
2.94400e-01	2.375848754770826e-02
3.02400e-01	2.252147155776011e-02
3.10400e-01	2.127436832298093e-02
3.18400e-01	2.001546664424066e-02
3.26400e-01	1.877980785533492e-02
3.34400e-01	1.758690254316609e-02
3.42400e-01	1.646704090463561e-02
3.50400e-01	1.544541301009904e-02
3.58400e-01	1.450722838277231e-02
3.66400e-01	1.363485635833412e-02
3.74400e-01	1.284086708625702e-02
3.82400e-01	1.212359981827529e-02
3.90400e-01	1.146574194912164e-02
3.98400e-01	1.086040985915782e-02
4.06400e-01	1.027528160483631e-02
4.14400e-01	9.691214546249416e-03
4.22400e-01	9.120518377719095e-03
4.30400e-01	8.568338137878058e-03
4.38400e-01	8.045370605523601e-03
4.46400e-01	7.564502995842379e-03
4.54400e-01	7.113888015921636e-03
4.62400e-01	6.683462633473062e-03
4.70400e-01	6.289693842799289e-03
4.78400e-01	5.929423943673821e-03
4.86400e-01	5.602980649595156e-03
4.94400e-01	5.322555780928160e-03
5.02400e-01	5.042146084483657e-03
5.10400e-01	4.739011505728525e-03
5.18400e-01	4.441129478843270e-03
5.26400e-01	4.157819746260390e-03
5.34400e-01	3.917609937443540e-03
5.42400e-01	3.742680323124773e-03
5.50400e-01	3.602925996826600e-03
5.58400e-01	3.467590756534751e-03
5.66400e-01	3.344067680899136e-03
5.74400e-01	3.223708873688769e-03
5.82400e-01	3.083647872209623e-03
5.90400e-01	2.914231918762484e-03
5.98400e-01	2.673500266367781e-03
6.06400e-01	2.340926793791441e-03
6.14400e-01	1.930598120750979e-03
6.22400e-01	1.449596335095391e-03
6.30400e-01	9.255646694094577e-04
6.38400e-01	3.794818955260445e-04
6.46400e-01	-1.943752363837245e-04
6.54400e-01	-7.958125871943658e-04
6.62400e-01	-1.419186688329512e-03
6.70400e-01	-2.064639724519337e-03
6.78400e-01	-2.717285694889192e-03
6.86400e-01	-3.356112540453527e-03
6.94400e-01	-3.994110499330993e-03
7.02400e-01	-4.633733658926161e-03
7.10400e-01	-5.246781491955526e-03
7.18400e-01	-5.816780042883552e-03
7.26400e-01	-6.323609361119218e-03
7.34400e-01	-6.748112290685838e-03
7.42400e-01	-7.100731412199994e-03
7.50400e-01	-7.396066934839892e-03
7.58400e-01	-7.618190984595976e-03
7.66400e-01	-7.764706927503483e-03
7.74400e-01	-7.853183877094359e-03
7.82400e-01	-7.890978057452426e-03
7.90400e-01	-7.905060792227313e-03
7.98400e-01	-7.912858496355490e-03
8.06400e-01	-7.901929647732890e-03
8.14400e-01	-7.864054835559469e-03
8.22400e-01	-7.794975790434228e-03
8.30400e-01	-7.686162976065980e-03
8.38400e-01	-7.541227004206790e-03
8.46400e-01	-7.365160129979849e-03
8.54400e-01	-7.141195266791166e-03
8.62400e-01	-6.868524794558286e-03
8.70400e-01	-6.550271963998865e-03
8.78400e-01	-6.181436546038609e-03
8.86400e-01	-5.796274530842849e-03
8.94400e-01	-5.413088749854894e-03
9.02400e-01	-5.015920255588237e-03
9.10400e-01	-4.601242453787027e-03
9.18400e-01	-4.152124028752796e-03
9.26400e-01	-3.656119619282245e-03
9.34400e-01	-3.135751366817432e-03
9.42400e-01	-2.613818765125887e-03
9.50400e-01	-2.088189710918014e-03
9.58400e-01	-1.566768824852246e-03
9.66400e-01	-1.066797209573142e-03
9.74400e-01	-5.969054524042553e-04
9.82400e-01	-1.856451409387754e-04
9.90400e-01	1.523548509663590e-04
9.98400e-01	4.241212628442180e-04
1.00640e+00	6.329650385666712e-04
1.01440e+00	7.955773021515260e-04
1.02240e+00	9.236001948203864e-04
1.03040e+00	1.014190057300632e-03
1.03840e+00	1.068383685619229e-03
1.04640e+00	1.086449295197062e-03
1.05440e+00	1.067844245784515e-03
1.06240e+00	1.022285957642976e-03
1.07040e+00	9.615441944316485e-04
1.07840e+00	8.832428582583758e-04
1.08640e+00	7.890318477897220e-04
1.09440e+00	6.923687335447966e-04
1.10240e+00	6.019766174318353e-04
1.11040e+00	5.278617117522348e-04
1.11840e+00	4.785818791080926e-04
1.12640e+00	4.521379011700380e-04
1.13440e+00	4.440596348755331e-04
1.14240e+00	4.593101028814504e-04
1.15040e+00	5.000717199338620e-04
1.15840e+00	5.578960170768415e-04
1.16640e+00	6.275348984803880e-04
1.17440e+00	7.050027289214482e-04
1.18240e+00	7.845334138719936e-04
1.19040e+00	8.687532137570605e-04
1.19840e+00	9.623314313946294e-04
1.20640e+00	1.055837763512616e-03
1.21440e+00	1.145847480071044e-03
1.22240e+00	1.238793015965030e-03
1.23040e+00	1.336054652486421e-03
1.23840e+00	1.447333674497817e-03
1.24640e+00	1.579123994946418e-03
1.25440e+00	1.722513539066964e-03
1.26240e+00	1.870704887044063e-03
1.27040e+00	2.022708392167926e-03
1.27840e+00	2.172337157614036e-03
1.28640e+00	2.319688770143993e-03
1.29440e+00	2.467168311834473e-03
1.30240e+00	2.597733951795940e-03
1.31040e+00	2.706077901394311e-03
1.31840e+00	2.795944022385684e-03
1.32640e+00	2.862788225964123e-03
1.33440e+00	2.927412270443840e-03
1.34240e+00	3.003745818460271e-03
1.35040e+00	3.072275986065307e-03
1.35840e+00	3.122270864729553e-03
1.36640e+00	3.151902306038380e-03
1.37440e+00	3.149466789562703e-03
1.38240e+00	3.127312310011972e-03
1.39040e+00	3.104712153436796e-03
1.39840e+00	3.049081866826017e-03
1.40640e+00	2.951447664607306e-03
1.41440e+00	2.835785740559318e-03
1.42240e+00	2.708847226339642e-03
1.43040e+00	2.612986986970882e-03
1.43840e+00	2.573126936681728e-03
1.44640e+00	2.563251302409057e-03
1.45440e+00	2.565606305063920e-03
1.46240e+00	2.565715984728449e-03
1.47040e+00	2.543323727679489e-03
1.47840e+00	2.502736983606755e-03
1.48640e+00	2.449436401630065e-03
1.49440e+00	2.352604694440521e-03
1.50240e+00	2.209178438132372e-03
1.51040e+00	2.018784164743324e-03
1.51840e+00	1.767343815083223e-03
1.52640e+00	1.512738438981871e-03
1.53440e+00	1.282862437299139e-03
1.54240e+00	1.046600040618990e-03
1.55040e+00	7.958864813180036e-04
1.55840e+00	4.926536410181163e-04
1.56640e+00	1.105824821627306e-04
1.57440e+00	-3.110859022363175e-04
1.58240e+00	-7.352226115848097e-04
1.59040e+00	-1.161324252941865e-03
1.59840e+00	-1.572729803139549e-03
1.60640e+00	-1.946952782114008e-03
1.61440e+00	-2.274131707060811e-03
1.62240e+00	-2.504753302891695e-03
1.63040e+00	-2.617750834817989e-03
1.63840e+00	-2.623717624826128e-03
1.64640e+00	-2.523707421982436e-03
1.65440e+00	-2.360168049529951e-03
1.66240e+00	-2.158951903770380e-03
1.67040e+00	-1.907053171387878e-03
1.67840e+00	-1.604247719686884e-03
1.68640e+00	-1.239461754128786e-03
1.69440e+00	-8.040619960789090e-04
1.70240e+00	-3.250759300204118e-04
1.71040e+00	1.685794919226682e-04
1.71840e+00	6.799155752888125e-04
1.72640e+00	1.200428735005193e-03
1.73440e+00	1.704402114222480e-03
1.74240e+00	2.177105964855282e-03
1.75040e+00	2.586283097788535e-03
1.75840e+00	2.912209391409409e-03
1.76640e+00	3.161934131008671e-03
1.77440e+00	3.341233639187863e-03
1.78240e+00	3.458926725803814e-03
1.79040e+00	3.522585360530738e-03
1.79840e+00	3.535477296773408e-03
1.80640e+00	3.501570521412384e-03
1.81440e+00	3.425474423679771e-03
1.82240e+00	3.310872311726904e-03
1.83040e+00	3.163362970016367e-03
1.83840e+00	2.989392620188153e-03
1.84640e+00	2.790454914179062e-03
1.85440e+00	2.569067622551525e-03
1.86240e+00	2.332584884727550e-03
1.87040e+00	2.086653930938942e-03
1.87840e+00	1.835837366540085e-03
1.88640e+00	1.584995651188386e-03
1.89440e+00	1.335532758529789e-03
1.90240e+00	1.087266602656199e-03
1.91040e+00	8.454931610273635e-04
1.91840e+00	6.136737350128135e-04
1.92640e+00	3.889329641825887e-04
1.93440e+00	1.700862787762554e-04
1.94240e+00	-4.354427362437273e-05
1.95040e+00	-2.535568752429576e-04
1.95840e+00	-4.570991333051872e-04
1.96640e+00	-6.501715847007609e-04
1.97440e+00	-8.363569647114942e-04
1.98240e+00	-1.016541645408079e-03
1.99040e+00	-1.185676334962422e-03
1.99840e+00	-1.341352930616127e-03
2.00640e+00	-1.478665517517113e-03
2.01440e+00	-1.593827034421802e-03
2.02240e+00	-1.690139416899583e-03
2.03040e+00	-1.770978055351357e-03
2.03840e+00	-1.835254629455794e-03
2.04640e+00	-1.884305970086377e-03
2.05440e+00	-1.920563158489737e-03
2.06240e+00	-1.944916587613760e-03
2.07040e+00	-1.963874404809267e-03
2.07840e+00	-1.980726802389512e-03
2.08640e+00	-1.993944355930660e-03
2.09440e+00	-2.003884335157780e-03
2.10240e+00	-2.006627265434876e-03
2.11040e+00	-1.999199845764001e-03
2.11840e+00	-1.985741764808200e-03
2.12640e+00	-1.968863460462544e-03
2.13440e+00	-1.947907699606678e-03
2.14240e+00	-1.925414843959212e-03
2.15040e+00	-1.899521196089441e-03
2.15840e+00	-1.866615733019260e-03
2.16640e+00	-1.836086504582344e-03
2.17440e+00	-1.811230688955890e-03
2.18240e+00	-1.787231857599087e-03
2.19040e+00	-1.763511455227106e-03
