# Filename: 051019_AerECAW_N15_4PDEER_3000ns_150K.DSC_db6_symmetric_denoised.txt
# Bckg_type: poly2_0.9_0.75
# FirstColumn: Time[us]
# SecondColumn: BckgSubtractedData
-3.20000e-03	1.265130822730877e-01
4.80000e-03	1.289310964182393e-01
1.28000e-02	1.307149644069526e-01
2.08000e-02	1.319049392889400e-01
2.88000e-02	1.325181699602879e-01
3.68000e-02	1.326747077177176e-01
4.48000e-02	1.324517618794771e-01
5.28000e-02	1.318330404777537e-01
6.08000e-02	1.308339488662505e-01
6.88000e-02	1.294362906016696e-01
7.68000e-02	1.276313134787762e-01
8.48000e-02	1.255004819027864e-01
9.28000e-02	1.231266076153676e-01
1.00800e-01	1.205221450704047e-01
1.08800e-01	1.177253700457225e-01
1.16800e-01	1.148047492086815e-01
1.24800e-01	1.118042441736431e-01
1.32800e-01	1.088145685914514e-01
1.40800e-01	1.058915081527880e-01
1.48800e-01	1.030321500807072e-01
1.56800e-01	1.002393092930448e-01
1.64800e-01	9.748953417571717e-02
1.72800e-01	9.476988913884954e-02
1.80800e-01	9.209126013804061e-02
1.88800e-01	8.945633922731995e-02
1.96800e-01	8.687547004944744e-02
2.04800e-01	8.435672392010422e-02
2.12800e-01	8.188543434570360e-02
2.20800e-01	7.944604021907360e-02
2.28800e-01	7.704137227918616e-02
2.36800e-01	7.466748101763296e-02
2.44800e-01	7.231114253585506e-02
2.52800e-01	6.996538182884873e-02
2.60800e-01	6.761227937308432e-02
2.68800e-01	6.524187828381765e-02
2.76800e-01	6.285929260965427e-02
2.84800e-01	6.046867995779685e-02
2.92800e-01	5.807808470937032e-02
3.00800e-01	5.569352286523351e-02
3.08800e-01	5.331767941213195e-02
3.16800e-01	5.095421398123040e-02
3.24800e-01	4.860455603781998e-02
3.32800e-01	4.627107247040013e-02
3.40800e-01	4.395905680980538e-02
3.48800e-01	4.167350114253705e-02
3.56800e-01	3.941870356628142e-02
3.64800e-01	3.719846778672486e-02
3.72800e-01	3.501679448927825e-02
3.80800e-01	3.287754440049787e-02
3.88800e-01	3.078312552558477e-02
3.96800e-01	2.873548811996276e-02
4.04800e-01	2.673800085051942e-02
4.12800e-01	2.479258025742856e-02
4.20800e-01	2.290012590591994e-02
4.28800e-01	2.106349162931109e-02
4.36800e-01	1.928060165131886e-02
4.44800e-01	1.754890162342491e-02
4.52800e-01	1.587525728311982e-02
4.60800e-01	1.426060891344512e-02
4.68800e-01	1.270328765234154e-02
4.76800e-01	1.120588248256234e-02
4.84800e-01	9.756213260694780e-03
4.92800e-01	8.346654483894279e-03
5.00800e-01	6.987059011926850e-03
5.08800e-01	5.682092454238864e-03
5.16800e-01	4.434437450337658e-03
5.24800e-01	3.250564652875398e-03
5.32800e-01	2.122204102549245e-03
5.40800e-01	1.038571733251555e-03
5.48800e-01	1.397187362950067e-05
5.56800e-01	-9.495337066824293e-04
5.64800e-01	-1.862856226309504e-03
5.72800e-01	-2.728495229127332e-03
5.80800e-01	-3.570888909962493e-03
5.88800e-01	-4.403072860586301e-03
5.96800e-01	-5.212512161368007e-03
6.04800e-01	-5.992901100423545e-03
6.12800e-01	-6.731654329795603e-03
6.20800e-01	-7.415815850168923e-03
6.28800e-01	-8.053528825645652e-03
6.36800e-01	-8.650767416394863e-03
6.44800e-01	-9.194943374429287e-03
6.52800e-01	-9.688788510128644e-03
6.60800e-01	-1.012865294084189e-02
6.68800e-01	-1.050288612715351e-02
6.76800e-01	-1.084761865867910e-02
6.84800e-01	-1.117827932818966e-02
6.92800e-01	-1.147472761034543e-02
7.00800e-01	-1.173232976081468e-02
7.08800e-01	-1.192119754128736e-02
7.16800e-01	-1.202267703606689e-02
7.24800e-01	-1.206294352551461e-02
7.32800e-01	-1.206421882163335e-02
7.40800e-01	-1.203332283520400e-02
7.48800e-01	-1.198540258299647e-02
7.56800e-01	-1.192863714826457e-02
7.64800e-01	-1.186590450586461e-02
7.72800e-01	-1.182878565074781e-02
7.80800e-01	-1.182741751657976e-02
7.88800e-01	-1.185898663784382e-02
7.96800e-01	-1.192929935086914e-02
8.04800e-01	-1.200100106580151e-02
8.12800e-01	-1.205472104436373e-02
8.20800e-01	-1.210751363624661e-02
8.28800e-01	-1.216276712474270e-02
8.36800e-01	-1.224079612249491e-02
8.44800e-01	-1.235566938787713e-02
8.52800e-01	-1.248262373899286e-02
8.60800e-01	-1.259763667694031e-02
8.68800e-01	-1.270056132131922e-02
8.76800e-01	-1.278138304634890e-02
8.84800e-01	-1.282400195994760e-02
8.92800e-01	-1.282054054880436e-02
9.00800e-01	-1.274094456086508e-02
9.08800e-01	-1.257136887148351e-02
9.16800e-01	-1.231808577429779e-02
9.24800e-01	-1.198279654125743e-02
9.32800e-01	-1.158797193624763e-02
9.40800e-01	-1.114750630545781e-02
9.48800e-01	-1.065659431207162e-02
9.56800e-01	-1.011686434111746e-02
9.64800e-01	-9.523156281851948e-03
9.72800e-01	-8.872331072044716e-03
9.80800e-01	-8.179450587224661e-03
9.88800e-01	-7.459870055904950e-03
9.96800e-01	-6.715020452893196e-03
1.00480e+00	-5.951495552486879e-03
1.01280e+00	-5.181883179253655e-03
1.02080e+00	-4.413955810285917e-03
1.02880e+00	-3.664819715803418e-03
1.03680e+00	-2.944638195135279e-03
1.04480e+00	-2.252028903766622e-03
1.05280e+00	-1.586760480979594e-03
1.06080e+00	-9.432800278074101e-04
1.06880e+00	-3.182906222669390e-04
1.07680e+00	2.868300915179122e-04
1.08480e+00	8.723173513737660e-04
1.09280e+00	1.436462139154485e-03
1.10080e+00	1.978254927407474e-03
1.10880e+00	2.501224259009265e-03
1.11680e+00	3.008913578876083e-03
1.12480e+00	3.501870438302919e-03
1.13280e+00	3.981603603861345e-03
1.14080e+00	4.450929509119130e-03
1.14880e+00	4.911683195715666e-03
1.15680e+00	5.367258325617864e-03
1.16480e+00	5.819525795802908e-03
1.17280e+00	6.268437064345513e-03
1.18080e+00	6.713822832427239e-03
1.18880e+00	7.154127805864198e-03
1.19680e+00	7.588857445719505e-03
1.20480e+00	8.017187970066871e-03
1.21280e+00	8.437825696909011e-03
1.22080e+00	8.852569557685618e-03
1.22880e+00	9.261500408145133e-03
1.23680e+00	9.662893284127406e-03
1.24480e+00	1.005628261333874e-02
1.25280e+00	1.043795679310123e-02
1.26080e+00	1.080508884216386e-02
1.26880e+00	1.115964451950184e-02
1.27680e+00	1.150248950532808e-02
1.28480e+00	1.183289416790951e-02
1.29280e+00	1.215186548544147e-02
1.30080e+00	1.245727143384460e-02
1.30880e+00	1.274594316039761e-02
1.31680e+00	1.302262720541445e-02
1.32480e+00	1.328853646663546e-02
1.33280e+00	1.353983232100606e-02
1.34080e+00	1.377535927765667e-02
1.34880e+00	1.398866203766620e-02
1.35680e+00	1.417583430129897e-02
1.36480e+00	1.434090957949138e-02
1.37280e+00	1.448668589521420e-02
1.38080e+00	1.461505507710746e-02
1.38880e+00	1.472915020178376e-02
1.39680e+00	1.482837314569173e-02
1.40480e+00	1.491177061711036e-02
1.41280e+00	1.498490036904322e-02
1.42080e+00	1.504873735570688e-02
1.42880e+00	1.510298155092484e-02
1.43680e+00	1.514993373237010e-02
1.44480e+00	1.518048483932382e-02
1.45280e+00	1.518984738557441e-02
1.46080e+00	1.518412721361442e-02
1.46880e+00	1.516577686350114e-02
1.47680e+00	1.513958848411821e-02
1.48480e+00	1.511008711918016e-02
1.49280e+00	1.507168914228224e-02
1.50080e+00	1.501804796181830e-02
1.50880e+00	1.495294464621015e-02
1.51680e+00	1.487605376899180e-02
1.52480e+00	1.478160013095789e-02
1.53280e+00	1.466735554353595e-02
1.54080e+00	1.452431077274520e-02
1.54880e+00	1.434743657242675e-02
1.55680e+00	1.414138110957770e-02
1.56480e+00	1.390945268530500e-02
1.57280e+00	1.365567886796833e-02
1.58080e+00	1.338472128149287e-02
1.58880e+00	1.309661665220178e-02
1.59680e+00	1.279149419698749e-02
1.60480e+00	1.247516373864970e-02
1.61280e+00	1.214957963194573e-02
1.62080e+00	1.181627607149847e-02
1.62880e+00	1.147953796794216e-02
1.63680e+00	1.113276000674658e-02
1.64480e+00	1.077278498476858e-02
1.65280e+00	1.040824755171274e-02
1.66080e+00	1.004392317091088e-02
1.66880e+00	9.684336009176460e-03
1.67680e+00	9.335750788681133e-03
1.68480e+00	8.993595203537671e-03
1.69280e+00	8.651905550316925e-03
1.70080e+00	8.320373093004728e-03
1.70880e+00	8.000775109533788e-03
1.71680e+00	7.687534172429637e-03
1.72480e+00	7.380247171296283e-03
1.73280e+00	7.063577027039141e-03
1.74080e+00	6.730194079119341e-03
1.74880e+00	6.388580408716939e-03
1.75680e+00	6.042825749570047e-03
1.76480e+00	5.703513236533019e-03
1.77280e+00	5.380216745568517e-03
1.78080e+00	5.067337804764553e-03
1.78880e+00	4.761628072179272e-03
1.79680e+00	4.469640575904231e-03
1.80480e+00	4.188681537321119e-03
1.81280e+00	3.923584868536165e-03
1.82080e+00	3.683429008974696e-03
1.82880e+00	3.445478089342141e-03
1.83680e+00	3.201893307243804e-03
1.84480e+00	2.964623884349852e-03
1.85280e+00	2.735212087360255e-03
1.86080e+00	2.538271296844399e-03
1.86880e+00	2.387001255169922e-03
1.87680e+00	2.263578188153338e-03
1.88480e+00	2.155766363642833e-03
1.89280e+00	2.051123888327702e-03
1.90080e+00	1.934962176690154e-03
1.90880e+00	1.809387056190917e-03
1.91680e+00	1.676377342679064e-03
1.92480e+00	1.517753237877935e-03
1.93280e+00	1.332043856903563e-03
1.94080e+00	1.115992201810533e-03
1.94880e+00	8.589499448477863e-04
1.95680e+00	5.960812320204690e-04
1.96480e+00	3.422633207918698e-04
1.97280e+00	7.941718760827131e-05
1.98080e+00	-1.956527534095551e-04
1.98880e+00	-5.124725123839258e-04
1.99680e+00	-8.886168420720844e-04
2.00480e+00	-1.298161246050758e-03
2.01280e+00	-1.720020924481296e-03
2.02080e+00	-2.144769505534094e-03
2.02880e+00	-2.555894773455421e-03
2.03680e+00	-2.947697648564842e-03
2.04480e+00	-3.318544070462331e-03
2.05280e+00	-3.638238834626176e-03
2.06080e+00	-3.898306058300570e-03
2.06880e+00	-4.099930448174786e-03
2.07680e+00	-4.235152160547545e-03
2.08480e+00	-4.343524393560325e-03
2.09280e+00	-4.444810338188278e-03
2.10080e+00	-4.519550660440273e-03
2.10880e+00	-4.563481389561937e-03
2.11680e+00	-4.552799963177024e-03
2.12480e+00	-4.471232752950252e-03
2.13280e+00	-4.345739758807198e-03
2.14080e+00	-4.202003145276956e-03
2.14880e+00	-4.040932994206070e-03
2.15680e+00	-3.874262790117145e-03
2.16480e+00	-3.718156911511813e-03
2.17280e+00	-3.580218224278434e-03
2.18080e+00	-3.494199624549237e-03
2.18880e+00	-3.475138066499754e-03
2.19680e+00	-3.516572379124249e-03
2.20480e+00	-3.618249667761455e-03
2.21280e+00	-3.753377698027001e-03
2.22080e+00	-3.905679770567683e-03
2.22880e+00	-4.084151271530552e-03
2.23680e+00	-4.289597921853440e-03
2.24480e+00	-4.529151106312060e-03
2.25280e+00	-4.808743686178154e-03
2.26080e+00	-5.111584673195522e-03
2.26880e+00	-5.419364481676178e-03
2.27680e+00	-5.735212733069729e-03
2.28480e+00	-6.054583098090403e-03
2.29280e+00	-6.360669139094156e-03
2.30080e+00	-6.644030412487223e-03
2.30880e+00	-6.884218788179563e-03
2.31680e+00	-7.068519525094877e-03
2.32480e+00	-7.202270092446357e-03
2.33280e+00	-7.290216315605431e-03
2.34080e+00	-7.337298957791875e-03
2.34880e+00	-7.348420930279855e-03
2.35680e+00	-7.326850958435913e-03
2.36480e+00	-7.275718579801633e-03
2.37280e+00	-7.199670190474346e-03
2.38080e+00	-7.102189032254348e-03
2.38880e+00	-6.986305672341813e-03
2.39680e+00	-6.855813368983578e-03
2.40480e+00	-6.711494717437121e-03
2.41280e+00	-6.554589938289524e-03
2.42080e+00	-6.390078709367088e-03
2.42880e+00	-6.221890727399023e-03
2.43680e+00	-6.052198738699125e-03
2.44480e+00	-5.884179323100511e-03
2.45280e+00	-5.718884033873250e-03
2.46080e+00	-5.555973955199772e-03
2.46880e+00	-5.400679300634884e-03
2.47680e+00	-5.256132698302334e-03
2.48480e+00	-5.119830749889492e-03
2.49280e+00	-4.990983941039985e-03
2.50080e+00	-4.868043686598951e-03
2.50880e+00	-4.749373106933828e-03
2.51680e+00	-4.637987759769883e-03
2.52480e+00	-4.537495565831055e-03
2.53280e+00	-4.446102833640242e-03
2.54080e+00	-4.363907869186054e-03
2.54880e+00	-4.294682404728067e-03
2.55680e+00	-4.240346063681392e-03
2.56480e+00	-4.204975772652499e-03
2.57280e+00	-4.191275606634711e-03
2.58080e+00	-4.197299001268020e-03
2.58880e+00	-4.221048617206544e-03
2.59680e+00	-4.262051466025903e-03
2.60480e+00	-4.319127199003208e-03
2.61280e+00	-4.390535317574413e-03
2.62080e+00	-4.475093507780247e-03
