# Filename: 062423_iLAWpACYC_TarpET28a_BL21_150K_DEE_1600ns_2029scans.DSC_db6_symmetric_denoised.txt
# Bckg_type: strexp_fixed_0.9_1
# FirstColumn: Time[us]
# SecondColumn: BckgSubtractedData
-1.60000e-03	3.298646870183631e-03
2.40000e-03	3.389825343721164e-03
6.40000e-03	3.532839907770568e-03
1.04000e-02	3.735549626918542e-03
1.44000e-02	3.971598998532905e-03
1.84000e-02	4.217338812743361e-03
2.24000e-02	4.467362171391601e-03
2.64000e-02	4.707810672175868e-03
3.04000e-02	4.926601202060734e-03
3.44000e-02	5.117927868653949e-03
3.84000e-02	5.251171851693768e-03
4.24000e-02	5.314547278740808e-03
4.64000e-02	5.311137680747179e-03
5.04000e-02	5.237624254292050e-03
5.44000e-02	5.124118512107156e-03
5.84000e-02	4.986509119936753e-03
6.24000e-02	4.813464438564298e-03
6.64000e-02	4.604263803055010e-03
7.04000e-02	4.343447122883501e-03
7.44000e-02	4.021382606877998e-03
7.84000e-02	3.658866361128067e-03
8.24000e-02	3.275336680196018e-03
8.64000e-02	2.874352586469245e-03
9.04000e-02	2.466330824447519e-03
9.44000e-02	2.063207832983262e-03
9.84000e-02	1.671435063883704e-03
1.02400e-01	1.315164300775141e-03
1.06400e-01	1.005262478032019e-03
1.10400e-01	7.394412057003218e-04
1.14400e-01	5.195115864629535e-04
1.18400e-01	3.266714490363856e-04
1.22400e-01	1.507841200310367e-04
1.26400e-01	-1.014546138665089e-06
1.30400e-01	-1.280741452023252e-04
1.34400e-01	-2.214068521153521e-04
1.38400e-01	-2.752029606658169e-04
1.42400e-01	-3.020783801755966e-04
1.46400e-01	-3.142089172520890e-04
1.50400e-01	-3.129800292681414e-04
1.54400e-01	-3.041003535084655e-04
1.58400e-01	-2.958846487512065e-04
1.62400e-01	-2.929723358107628e-04
1.66400e-01	-3.097617593139254e-04
1.70400e-01	-3.531532271265761e-04
1.74400e-01	-4.214788922810818e-04
1.78400e-01	-5.148411601081526e-04
1.82400e-01	-6.233575498289728e-04
1.86400e-01	-7.417021472415285e-04
1.90400e-01	-8.720053969683729e-04
1.94400e-01	-1.013274722509654e-03
1.98400e-01	-1.170227779713766e-03
2.02400e-01	-1.345057260490119e-03
2.06400e-01	-1.530766590851141e-03
2.10400e-01	-1.721367911404636e-03
2.14400e-01	-1.913426810881146e-03
2.18400e-01	-2.102349842607156e-03
2.22400e-01	-2.285403389015518e-03
2.26400e-01	-2.460708848651497e-03
2.30400e-01	-2.621603186125247e-03
2.34400e-01	-2.765668359159708e-03
2.38400e-01	-2.891841610287272e-03
2.42400e-01	-2.997918666446578e-03
2.46400e-01	-3.090893497239718e-03
2.50400e-01	-3.173364537505024e-03
2.54400e-01	-3.242512168975396e-03
2.58400e-01	-3.298554740714208e-03
2.62400e-01	-3.334520206195580e-03
2.66400e-01	-3.347005475692174e-03
2.70400e-01	-3.341797911948932e-03
2.74400e-01	-3.322791910078802e-03
2.78400e-01	-3.294596642147121e-03
2.82400e-01	-3.262393077595551e-03
2.86400e-01	-3.225382614928566e-03
2.90400e-01	-3.182989473452926e-03
2.94400e-01	-3.141215231175604e-03
2.98400e-01	-3.100756134500862e-03
3.02400e-01	-3.063132799055606e-03
3.06400e-01	-3.032489242195805e-03
3.10400e-01	-2.997887804177782e-03
3.14400e-01	-2.954784884768198e-03
3.18400e-01	-2.910256344425548e-03
3.22400e-01	-2.866473997001311e-03
3.26400e-01	-2.832899088347599e-03
3.30400e-01	-2.815872168252857e-03
3.34400e-01	-2.807661453196489e-03
3.38400e-01	-2.801467947150071e-03
3.42400e-01	-2.796517736885256e-03
3.46400e-01	-2.788976145298178e-03
3.50400e-01	-2.775953581213846e-03
3.54400e-01	-2.756647220626214e-03
3.58400e-01	-2.721052748951743e-03
3.62400e-01	-2.665760885107236e-03
3.66400e-01	-2.592735348380395e-03
3.70400e-01	-2.501252440757409e-03
3.74400e-01	-2.402545882666806e-03
3.78400e-01	-2.303098731459467e-03
3.82400e-01	-2.198302047994815e-03
3.86400e-01	-2.087282127500349e-03
3.90400e-01	-1.965978913915708e-03
3.94400e-01	-1.831102900356995e-03
3.98400e-01	-1.689765222066506e-03
4.02400e-01	-1.549590874862382e-03
4.06400e-01	-1.409089541636360e-03
4.10400e-01	-1.270191190078560e-03
4.14400e-01	-1.139547072378990e-03
4.18400e-01	-1.020665682864573e-03
4.22400e-01	-9.225694235275435e-04
4.26400e-01	-8.505018234328485e-04
4.30400e-01	-8.018433450986731e-04
4.34400e-01	-7.746224638861507e-04
4.38400e-01	-7.655029898653402e-04
4.42400e-01	-7.715575870519671e-04
4.46400e-01	-7.921358767596645e-04
4.50400e-01	-8.262629679437316e-04
4.54400e-01	-8.720084646545161e-04
4.58400e-01	-9.282381974382710e-04
4.62400e-01	-9.930683570584780e-04
4.66400e-01	-1.063913857732557e-03
4.70400e-01	-1.141446013432963e-03
4.74400e-01	-1.225512703913969e-03
4.78400e-01	-1.312551352342408e-03
4.82400e-01	-1.400117618926819e-03
4.86400e-01	-1.486304189109793e-03
4.90400e-01	-1.568808084266509e-03
4.94400e-01	-1.647944989968425e-03
4.98400e-01	-1.724865282861127e-03
5.02400e-01	-1.796514855282814e-03
5.06400e-01	-1.861514032746838e-03
5.10400e-01	-1.922097884437443e-03
5.14400e-01	-1.979130013722977e-03
5.18400e-01	-2.034915332407834e-03
5.22400e-01	-2.091286483892120e-03
5.26400e-01	-2.146201523454308e-03
5.30400e-01	-2.197614929749880e-03
5.34400e-01	-2.246248857735226e-03
5.38400e-01	-2.291561399352169e-03
5.42400e-01	-2.332188252638282e-03
5.46400e-01	-2.367743543686619e-03
5.50400e-01	-2.395041975202118e-03
5.54400e-01	-2.412649397068429e-03
5.58400e-01	-2.421865262237133e-03
5.62400e-01	-2.423220149914074e-03
5.66400e-01	-2.419210781742785e-03
5.70400e-01	-2.411842544506445e-03
5.74400e-01	-2.400165730600820e-03
5.78400e-01	-2.383810523821985e-03
5.82400e-01	-2.363626585113263e-03
5.86400e-01	-2.339467007321547e-03
5.90400e-01	-2.312562482118691e-03
5.94400e-01	-2.285047389827441e-03
5.98400e-01	-2.254581629346592e-03
6.02400e-01	-2.220306639217841e-03
6.06400e-01	-2.185560095480968e-03
6.10400e-01	-2.152115866203458e-03
6.14400e-01	-2.122348738772880e-03
6.18400e-01	-2.098678252000467e-03
6.22400e-01	-2.079283044853378e-03
6.26400e-01	-2.061967816560877e-03
6.30400e-01	-2.049104220532335e-03
6.34400e-01	-2.040787038226353e-03
6.38400e-01	-2.035011936175259e-03
6.42400e-01	-2.031331839697234e-03
6.46400e-01	-2.024928894973216e-03
6.50400e-01	-2.013292239436048e-03
6.54400e-01	-1.998704131239129e-03
6.58400e-01	-1.982121941899184e-03
6.62400e-01	-1.966221949488073e-03
6.66400e-01	-1.953650439842654e-03
6.70400e-01	-1.942389722384963e-03
6.74400e-01	-1.931008039682971e-03
6.78400e-01	-1.921866690809454e-03
6.82400e-01	-1.914251727110146e-03
6.86400e-01	-1.909024331624061e-03
6.90400e-01	-1.908795599204588e-03
6.94400e-01	-1.906159391742703e-03
6.98400e-01	-1.897962199307622e-03
7.02400e-01	-1.888784383581173e-03
7.06400e-01	-1.879938903493067e-03
7.10400e-01	-1.877593387772272e-03
7.14400e-01	-1.885874367957608e-03
7.18400e-01	-1.899488873311317e-03
7.22400e-01	-1.913789879705044e-03
7.26400e-01	-1.928246734105955e-03
7.30400e-01	-1.940187614348940e-03
7.34400e-01	-1.947657184490692e-03
7.38400e-01	-1.950146453900216e-03
7.42400e-01	-1.940651044411096e-03
7.46400e-01	-1.916725566444295e-03
7.50400e-01	-1.879773069367039e-03
7.54400e-01	-1.829213058474001e-03
7.58400e-01	-1.772733113162057e-03
7.62400e-01	-1.714901159819574e-03
7.66400e-01	-1.652125181588928e-03
7.70400e-01	-1.583417412356225e-03
7.74400e-01	-1.506401195119649e-03
7.78400e-01	-1.418686812980838e-03
7.82400e-01	-1.325052087805275e-03
7.86400e-01	-1.230986174245698e-03
7.90400e-01	-1.134155406430430e-03
7.94400e-01	-1.035220020570178e-03
7.98400e-01	-9.395365466457943e-04
8.02400e-01	-8.497307053767854e-04
8.06400e-01	-7.727842087395573e-04
8.10400e-01	-7.130987871464345e-04
8.14400e-01	-6.678198213213444e-04
8.18400e-01	-6.346914067057018e-04
8.22400e-01	-6.121990211156817e-04
8.26400e-01	-5.979672483252815e-04
8.30400e-01	-5.914697897405034e-04
8.34400e-01	-5.925234957917967e-04
8.38400e-01	-5.970111579679388e-04
8.42400e-01	-6.033208559730730e-04
8.46400e-01	-6.112567036565787e-04
8.50400e-01	-6.189007979795395e-04
8.54400e-01	-6.302265921345541e-04
8.58400e-01	-6.475195864406820e-04
8.62400e-01	-6.659089709877908e-04
8.66400e-01	-6.825992691097158e-04
8.70400e-01	-6.960654164706953e-04
8.74400e-01	-7.030651396529134e-04
8.78400e-01	-7.060845695666479e-04
8.82400e-01	-7.088611677000465e-04
8.86400e-01	-7.045938705709903e-04
8.90400e-01	-6.915065265191734e-04
8.94400e-01	-6.738883560276585e-04
8.98400e-01	-6.525540674333562e-04
9.02400e-01	-6.366392050582106e-04
9.06400e-01	-6.310343150249452e-04
9.10400e-01	-6.302114337646720e-04
9.14400e-01	-6.308091238832060e-04
9.18400e-01	-6.281836250627501e-04
9.22400e-01	-6.172939059707513e-04
9.26400e-01	-6.000357910297690e-04
9.30400e-01	-5.778292510531927e-04
9.34400e-01	-5.452466102657885e-04
9.38400e-01	-5.026581172794792e-04
9.42400e-01	-4.486662138454949e-04
9.46400e-01	-3.791970722114912e-04
9.50400e-01	-3.072851306895669e-04
9.54400e-01	-2.383018003100041e-04
9.58400e-01	-1.656135979560119e-04
9.62400e-01	-8.815571762328118e-05
9.66400e-01	5.461534883132094e-06
9.70400e-01	1.218653462564894e-04
9.74400e-01	2.513234081225370e-04
9.78400e-01	3.861496152688783e-04
9.82400e-01	5.222250718500005e-04
9.86400e-01	6.530071572435687e-04
9.90400e-01	7.769731573582576e-04
9.94400e-01	8.938462677800304e-04
9.98400e-01	9.924788596158733e-04
1.00240e+00	1.070085550187911e-03
1.00640e+00	1.126744956035585e-03
1.01040e+00	1.158928312668135e-03
1.01440e+00	1.182315798016778e-03
1.01840e+00	1.204534736109793e-03
1.02240e+00	1.217633750464667e-03
1.02640e+00	1.219846591923049e-03
1.03040e+00	1.201088495360810e-03
1.03440e+00	1.154541581355602e-03
1.03840e+00	1.091093020034767e-03
1.04240e+00	1.020883093521360e-03
1.04640e+00	9.445508723513656e-04
1.05040e+00	8.671179644299708e-04
1.05440e+00	7.944182136756704e-04
1.05840e+00	7.289671889658622e-04
1.06240e+00	6.846997175320936e-04
1.06640e+00	6.675090947886502e-04
1.07040e+00	6.747276646019079e-04
1.07440e+00	7.067289926920023e-04
1.07840e+00	7.514561898424261e-04
1.08240e+00	8.015420741039572e-04
1.08640e+00	8.620363590750048e-04
1.09040e+00	9.341198737744582e-04
1.09440e+00	1.020879297245362e-03
1.09840e+00	1.125501608786339e-03
1.10240e+00	1.240595682206280e-03
1.10640e+00	1.357580571521154e-03
1.11040e+00	1.479761099397169e-03
1.11440e+00	1.606095425081192e-03
1.11840e+00	1.727929568344315e-03
1.12240e+00	1.840726560214104e-03
1.12640e+00	1.934288557880009e-03
1.13040e+00	2.001876915887273e-03
1.13440e+00	2.047390397717710e-03
1.13840e+00	2.074342208843315e-03
1.14240e+00	2.083961981095739e-03
1.14640e+00	2.078936766036648e-03
1.15040e+00	2.061211523458467e-03
1.15440e+00	2.031824527105846e-03
1.15840e+00	1.996488720825519e-03
1.16240e+00	1.958110844887964e-03
1.16640e+00	1.916547110619345e-03
1.17040e+00	1.873503582677229e-03
1.17440e+00	1.825577439364097e-03
1.17840e+00	1.770446203377141e-03
1.18240e+00	1.713284657055365e-03
1.18640e+00	1.657501452040112e-03
1.19040e+00	1.603279767128889e-03
1.19440e+00	1.553574919445780e-03
1.19840e+00	1.506836769655969e-03
1.20240e+00	1.459422813460594e-03
1.20640e+00	1.420189832174238e-03
1.21040e+00	1.392609337236496e-03
1.21440e+00	1.370820743002396e-03
1.21840e+00	1.353027018199432e-03
1.22240e+00	1.330917844536428e-03
1.22640e+00	1.299081417630356e-03
1.23040e+00	1.263821451971949e-03
1.23440e+00	1.230454459630857e-03
1.23840e+00	1.200151696791865e-03
1.24240e+00	1.176315486606188e-03
1.24640e+00	1.160682146358149e-03
1.25040e+00	1.153566759618012e-03
1.25440e+00	1.162797505854868e-03
1.25840e+00	1.190631687053996e-03
1.26240e+00	1.235816294206949e-03
1.26640e+00	1.299348359332681e-03
1.27040e+00	1.371150210963139e-03
1.27440e+00	1.445752432939763e-03
1.27840e+00	1.527137757385474e-03
1.28240e+00	1.615792730733488e-03
1.28640e+00	1.716429555641060e-03
1.29040e+00	1.832250547214510e-03
1.29440e+00	1.956522839787572e-03
1.29840e+00	2.082651308681890e-03
1.30240e+00	2.210403568693905e-03
1.30640e+00	2.336957536717965e-03
1.31040e+00	2.457676920968646e-03
1.31440e+00	2.570122224411752e-03
1.31840e+00	2.666206801794703e-03
1.32240e+00	2.741962702580323e-03
1.32640e+00	2.798801392605487e-03
1.33040e+00	2.837015305167306e-03
1.33440e+00	2.861879830574511e-03
1.33840e+00	2.876639991916479e-03
1.34240e+00	2.879969644704420e-03
1.34640e+00	2.872088517210792e-03
